#Parameters = {thARC=0.6; nARC=1.25; thsub=1; p=1; nSub=1}
#"Wavelength / um"	"T (11) [Real Part]"
#--------------------------------------
14.989622900000	0.99518268690854
14.937342202292	0.99517586525685
14.885424925521	0.99516849802132
14.833867293419	0.99516058926228
14.782665581854	0.99515214302696
14.731816117936	0.99514316334941
14.681315279138	0.99513365425041
14.631159492435	0.99512361973741
14.581345233463	0.99511306380447
14.531869025691	0.99510199043219
14.482727439614	0.99509040358764
14.433917091960	0.99507830722430
14.385434644914	0.99506570528199
14.337276805356	0.99505260168681
14.289440324118	0.99503900035109
14.241921995249	0.99502490517330
14.194718655303	0.99501032003802
14.147827182633	0.99499524881587
14.101244496707	0.99497969536344
14.054967557431	0.99496366352326
14.008993364486	0.99494715712371
13.963318956684	0.99493017997899
13.917941411328	0.99491273588905
13.872857843591	0.99489482863957
13.828065405904	0.99487646200185
13.783561287356	0.99485763973281
13.739342713107	0.99483836557491
13.695406943810	0.99481864325611
13.651751275046	0.99479847648984
13.608373036768	0.99477786897491
13.565269592760	0.99475682439550
13.522438340099	0.99473534642110
13.479876708633	0.99471343870645
13.437582160466	0.99469110489154
13.395552189455	0.99466834860153
13.353784320713	0.99464517344669
13.312276110124	0.99462158302243
13.271025143869	0.99459758090917
13.230029037952	0.99457317067238
13.189285437747	0.99454835586249
13.148792017544	0.99452314001486
13.108546480105	0.99449752664977
13.068546556234	0.99447151927235
13.028790004346	0.99444512137259
12.989274610052	0.99441833642523
12.949998185745	0.99439116788980
12.910958570198	0.99436361921056
12.872153628167	0.99433569381647
12.833581250000	0.99430739512115
12.795239351259	0.99427872652285
12.757125872340	0.99424969140445
12.719238778108	0.99422029313339
12.681576057530	0.99419053506168
12.644135723323	0.99416042052583
12.606915811606	0.99412995284688
12.569914381551	0.99409913533034
12.533129515050	0.99406797126615
12.496559316382	0.99403646392869
12.460201911887	0.99400461657676
12.424055449648	0.99397243245353
12.388118099174	0.99393991478652
12.352388051092	0.99390706678762
12.316863516845	0.99387389165304
12.281542728390	0.99384039256327
12.246423937908	0.99380657268311
12.211505417515	0.99377243516163
12.176785458976	0.99373798313215
12.142262373431	0.99370321971224
12.107934491115	0.99366814800367
12.073800161095	0.99363277109245
12.039857751004	0.99359709204878
12.006105646776	0.99356111392704
11.972542252396	0.99352483976579
11.939165989646	0.99348827258776
11.905975297855	0.99345141539982
11.872968633663	0.99341427119301
11.840144470774	0.99337684294248
11.807501299724	0.99333913360754
11.775037627651	0.99330114613159
11.742751978065	0.99326288344218
11.710642890625	0.99322434845095
11.678708920919	0.99318554405364
11.646948640249	0.99314647313013
11.615360635413	0.99310713854436
11.583943508501	0.99306754314439
11.552695876686	0.99302768976237
11.521616372022	0.99298758121454
11.490703641242	0.99294722030124
11.459956345566	0.99290660980691
11.429373160503	0.99286575250008
11.398952775665	0.99282465113337
11.368693894577	0.99278330844351
11.338595234493	0.99274172715133
11.308655526217	0.99269990996176
11.278873513920	0.99265785956386
11.249247954972	0.99261557863078
11.219777619760	0.99257306981982
11.190461291527	0.99253033577239
11.161297766195	0.99248737911405
11.132285852209	0.99244420245447
11.103424370370	0.99240080838752
11.074712153676	0.99235719949119
11.046148047163	0.99231337832767
11.017730907755	0.99226934744332
10.989459604106	0.99222510936867
10.961333016453	0.99218066661850
10.933350036470	0.99213602169177
10.905509567115	0.99209117707168
10.877810522496	0.99204613522566
10.850251827723	0.99200089860543
10.822832418773	0.99195546964693
10.795551242348	0.99190985077043
10.768407255747	0.99186404438048
10.741399426729	0.99181805286595
10.714526733381	0.99177187860007
10.687788163993	0.99172552394037
10.661182716927	0.99167899122881
10.634709400497	0.99163228279169
10.608367232838	0.99158540093977
10.582155241793	0.99153834796819
10.556072464789	0.99149112615657
10.530117948718	0.99144373776899
10.504290749825	0.99139618505402
10.478589933590	0.99134847024476
10.453014574616	0.99130059555884
10.427563756522	0.99125256319843
10.402236571825	0.99120437535031
10.377032121841	0.99115603418587
10.351949516575	0.99110754186110
10.326987874612	0.99105890051670
10.302146323024	0.99101011227801
10.277423997257	0.99096117925510
10.252820041040	0.99091210354277
10.228333606278	0.99086288722061
10.203963852961	0.99081353235298
10.179709949066	0.99076404098905
10.155571070461	0.99071441516288
10.131546400811	0.99066465689337
10.107635131490	0.99061476818436
10.083836461487	0.99056475102462
10.060149597315	0.99051460738787
10.036573752929	0.99046433923288
10.013108149633	0.99041394850341
9.9897520159947	0.99036343712831
9.9665045877660	0.99031280702152
9.9433651077944	0.99026206008212
9.9203328259431	0.99021119819435
9.8974069990096	0.99016022322765
9.8745868906456	0.99010913703671
9.8518717712783	0.99005794146147
9.8292609180328	0.99000663832719
9.8067536146549	0.98995522944446
9.7843491514360	0.98990371660926
9.7620468251384	0.98985210160297
9.7398459389214	0.98980038619244
9.7177458022690	0.98974857212999
9.6957457309185	0.98969666115349
9.6738450467893	0.98964465498634
9.6520430779137	0.98959255533759
9.6303391583681	0.98954036390190
9.6087326282051	0.98948808235962
9.5872228333866	0.98943571237684
9.5658091257179	0.98938325560539
9.5444908627826	0.98933071368292
9.5232674078780	0.98927808823292
9.5021381299525	0.98922538086477
9.4811024035421	0.98917259317378
9.4601596087094	0.98911972674122
9.4393091309824	0.98906678313439
9.4185503612944	0.98901376390665
9.3978826959248	0.98896067059744
9.3773055364404	0.98890750473235
9.3568182896380	0.98885426782319
9.3364203674868	0.98880096136795
9.3161111870727	0.98874758685094
9.2958901705426	0.98869414574277
9.2757567450495	0.98864063950043
9.2557103426984	0.98858706956733
9.2357504004929	0.98853343737331
9.2158763602828	0.98847974433476
9.1960876687117	0.98842599185458
9.1763837771656	0.98837218132231
9.1567641417227	0.98831831411411
9.1372282231027	0.98826439159285
9.1177754866180	0.98821041510813
9.0984054021244	0.98815638599637
9.0791174439733	0.98810230558080
9.0599110909640	0.98804817517155
9.0407858262967	0.98799399606571
9.0217411375263	0.98793976954731
9.0027765165165	0.98788549688748
8.9838914593947	0.98783117934439
8.9650854665072	0.98777681816336
8.9463580423754	0.98772241457692
8.9277086956522	0.98766796980483
8.9091369390788	0.98761348505412
8.8906422894425	0.98755896151919
8.8722242675348	0.98750440038182
8.8538823981099	0.98744980281126
8.8356162098438	0.98739516996422
8.8174252352941	0.98734050298499
8.7993090108600	0.98728580300546
8.7812670767428	0.98723107114518
8.7632989769073	0.98717630851140
8.7454042590432	0.98712151619913
8.7275824745269	0.98706669529121
8.7098331783847	0.98701184685836
8.6921559292549	0.98695697195920
8.6745502893519	0.98690207164035
8.6570158244297	0.98684714693646
8.6395521037464	0.98679219887026
8.6221587000288	0.98673722845263
8.6048351894374	0.98668223668266
8.5875811515325	0.98662722454768
8.5703961692396	0.98657219302334
8.5532798288160	0.98651714307366
8.5362317198178	0.98646207565106
8.5192514350668	0.98640699169647
8.5023385706183	0.98635189213933
8.4854927257288	0.98629677789768
8.4687135028249	0.98624164987823
8.4520005074711	0.98618650897635
8.4353533483399	0.98613135607621
8.4187716371806	0.98607619205079
8.4022549887892	0.98602101776195
8.3858030209790	0.98596583406047
8.3694153545505	0.98591064178614
8.3530916132627	0.98585544176780
8.3368314238042	0.98580023482338
8.3206344157646	0.98574502176001
8.3045002216066	0.98568980337401
8.2884284766381	0.98563458045101
8.2724188189845	0.98557935376598
8.2564708895621	0.98552412408328
8.2405843320506	0.98546889215675
8.2247587928669	0.98541365872972
8.2089939211391	0.98535842453512
8.1932893686800	0.98530319029554
8.1776447899618	0.98524795672322
8.1620598420909	0.98519272452020
8.1465341847826	0.98513749437831
8.1310674803363	0.98508226697928
8.1156593936113	0.98502704299477
8.1003095920022	0.98497182308643
8.0850177454153	0.98491660790598
8.0697835262450	0.98486139809524
8.0546066093498	0.98480619428624
8.0394866720300	0.98475099710123
8.0244233940043	0.98469580715276
8.0094164573871	0.98464062504374
7.9944655466667	0.98458545136751
7.9795703486825	0.98453028670790
7.9647305526036	0.98447513163926
7.9499458499072	0.98441998672657
7.9352159343568	0.98436485252547
7.9205405019815	0.98430972958231
7.9059192510549	0.98425461843425
7.8913518820742	0.98419951960930
7.8768380977404	0.98414443362637
7.8623776029373	0.98408936099536
7.8479701047120	0.98403430221718
7.8336153122550	0.98397925778386
7.8193129368805	0.98392422817858
7.8050626920073	0.98386921387575
7.7908642931393	0.98381421534104
7.7767174578470	0.98375923303149
7.7626219057483	0.98370426739553
7.7485773584906	0.98364931887307
7.7345835397317	0.98359438789553
7.7206401751223	0.98353947488596
7.7067469922879	0.98348458025902
7.6929037208109	0.98342970442112
7.6791100922131	0.98337484777043
7.6653658399386	0.98332001069698
7.6516706993364	0.98326519358268
7.6380244076433	0.98321039680142
7.6244267039674	0.98315562071913
7.6108773292714	0.98310086569380
7.5973760263558	0.98304613207561
7.5839225398432	0.98299142020691
7.5705166161616	0.98293673042238
7.5571580035291	0.98288206304899
7.5438464519376	0.98282741840614
7.5305817131374	0.98277279680571
7.5173635406219	0.98271819855206
7.5041916896120	0.98266362394218
7.4910659170415	0.98260907326570
7.4779859815415	0.98255454680496
7.4649516434263	0.98250004483509
7.4519626646781	0.98244556762403
7.4390188089330	0.98239111543266
7.4261198414664	0.98233668851479
7.4132655291790	0.98228228711728
7.4004556405826	0.98222791148006
7.3876899457861	0.98217356183623
7.3749682164822	0.98211923841209
7.3622902259332	0.98206494142722
7.3496557489581	0.98201067109453
7.3370645619187	0.98195642762034
7.3245164427071	0.98190221120442
7.3120111707317	0.98184802204008
7.2995485269053	0.98179386031420
7.2871282936315	0.98173972620732
7.2747502547925	0.98168561989368
7.2624141957364	0.98163154154131
7.2501199032648	0.98157749131204
7.2378671656205	0.98152346936162
7.2256557724753	0.98146947583976
7.2134855149182	0.98141551089019
7.2013561854432	0.98136157465070
7.1892675779376	0.98130766725324
7.1772194876706	0.98125378882395
7.1652117112811	0.98119993948326
7.1532440467669	0.98114611934591
7.1413162934731	0.98109232852102
7.1294282520809	0.98103856711217
7.1175797245964	0.98098483521746
7.1057705143399	0.98093113292955
7.0940004259347	0.98087746033572
7.0822692652965	0.98082381751797
7.0705768396226	0.98077020455305
7.0589229573817	0.98071662151251
7.0473074283028	0.98066306846278
7.0357300633654	0.98060954546524
7.0241906747891	0.98055605257625
7.0126890760234	0.98050258984725
7.0012250817375	0.98044915732478
6.9897985078107	0.98039575505057
6.9784091713222	0.98034238306157
6.9670568905415	0.98028904139005
6.9557414849188	0.98023573006363
6.9444627750753	0.98018244910535
6.9332205827937	0.98012919853373
6.9220147310090	0.98007597836282
6.9108450437990	0.98002278860228
6.8997113463751	0.97996962925741
6.8886134650735	0.97991650032925
6.8775512273457	0.97986340181460
6.8665244617499	0.97981033370609
6.8555329979419	0.97975729599226
6.8445766666667	0.97970428865758
6.8336552997493	0.97965131168256
6.8227687300865	0.97959836504376
6.8119167916383	0.97954544871387
6.8010993194192	0.97949256266176
6.7903161494904	0.97943970685258
6.7795671189507	0.97938688124773
6.7688520659291	0.97933408580501
6.7581708295762	0.97928132047864
6.7475232500563	0.97922858521928
6.7369091685393	0.97917587997415
6.7263284271932	0.97912320468707
6.7157808691756	0.97907055929849
6.7052663386267	0.97901794374558
6.6947846806610	0.97896535796225
6.6843357413601	0.97891280187924
6.6739193677649	0.97886027542419
6.6635354078684	0.97880777852164
6.6531837106081	0.97875531109314
6.6428641258586	0.97870287305725
6.6325765044248	0.97865046432968
6.6223206980340	0.97859808482327
6.6120965593295	0.97854573444807
6.6019039418630	0.97849341311140
6.5917427000879	0.97844112071791
6.5816126893524	0.97838885716963
6.5715137658922	0.97833662236600
6.5614457868243	0.97828441620399
6.5514086101399	0.97823223857808
6.5414020946978	0.97818008938035
6.5314261002179	0.97812796850055
6.5214804872743	0.97807587582611
6.5115651172893	0.97802381124225
6.5016798525266	0.97797177463198
6.4918245560849	0.97791976587619
6.4819990918919	0.97786778485368
6.4722033246978	0.97781583144124
6.4624371200690	0.97776390551366
6.4527003443823	0.97771200694384
6.4429928648184	0.97766013560280
6.4333145493562	0.97760829135974
6.4236652667667	0.97755647408210
6.4140448866068	0.97750468363560
6.4044532792138	0.97745291988434
6.3948903156997	0.97740118269076
6.3853558679446	0.97734947191577
6.3758498085921	0.97729778741879
6.3663720110427	0.97724612905775
6.3569223494487	0.97719449668922
6.3475006987084	0.97714289016838
6.3381069344609	0.97709130934912
6.3287409330800	0.97703975408410
6.3194025716695	0.97698822422476
6.3100917280572	0.97693671962138
6.3008082807902	0.97688524012316
6.2915521091291	0.97683378557823
6.2823230930427	0.97678235583373
6.2731211132036	0.97673095073582
6.2639460509820	0.97667957012980
6.2547977884415	0.97662821386007
6.2456762083333	0.97657688177024
6.2365811940919	0.97652557370316
6.2275126298297	0.97647428950096
6.2184704003319	0.97642302900511
6.2094543910522	0.97637179205645
6.2004644881075	0.97632057849528
6.1915005782734	0.97626938816134
6.1825625489792	0.97621822089392
6.1736502883031	0.97616707653185
6.1647636849681	0.97611595491361
6.1559026283368	0.97606485587731
6.1470670084068	0.97601377926079
6.1382567158067	0.97596272490162
6.1294716417910	0.97591169263720
6.1207116782360	0.97586068230474
6.1119767176351	0.97580969374136
6.1032666530945	0.97575872678409
6.0945813783289	0.97570778126996
6.0859207876573	0.97565685703600
6.0772847759984	0.97560595391932
6.0686732388664	0.97555507175714
6.0600860723671	0.97550421038680
6.0515231731934	0.97545336964587
6.0429844386212	0.97540254937214
6.0344697665056	0.97535174940368
6.0259790552764	0.97530096957888
6.0175122039342	0.97525020973649
6.0090691120465	0.97519946971568
6.0006496797438	0.97514874935606
5.9922538077154	0.97509804849771
5.9838813972056	0.97504736698126
5.9755323500100	0.97499670464791
5.9672065684713	0.97494606133945
5.9589039554760	0.97489543689833
5.9506244144502	0.97484483116770
5.9423678493558	0.97479424399142
5.9341341646873	0.97474367521414
5.9259232654675	0.97469312468130
5.9177350572444	0.97464259223919
5.9095694460871	0.97459207773500
5.9014263385827	0.97454158101682
5.8933056418321	0.97449110193371
5.8852072634472	0.97444064033574
5.8771311115468	0.97439019607400
5.8690770947533	0.97433976900067
5.8610451221896	0.97428935896902
5.8530351034752	0.97423896583348
5.8450469487229	0.97418858944967
5.8370805685358	0.97413822967441
5.8291358740035	0.97408788636580
5.8212127766990	0.97403755938319
5.8133111886756	0.97398724858731
5.8054310224632	0.97393695384020
5.7975721910656	0.97388667500533
5.7897346079567	0.97383641194757
5.7819181870781	0.97378616453329
5.7741228428351	0.97373593263032
5.7663484900942	0.97368571610805
5.7585950441798	0.97363551483741
5.7508624208709	0.97358532869094
5.7431505363985	0.97353515754280
5.7354593074421	0.97348500126883
5.7277886511272	0.97343485974654
5.7201384850219	0.97338473285518
5.7125087271341	0.97333462047575
5.7048992959087	0.97328452249105
5.6973101102242	0.97323443878567
5.6897410893908	0.97318436924607
5.6821921531463	0.97313431376059
5.6746632216544	0.97308427221948
5.6671542155009	0.97303424451491
5.6596650556919	0.97298423054103
5.6521956636501	0.97293423019399
5.6447459612126	0.97288424337196
5.6373158706281	0.97283426997516
5.6299053145540	0.97278430990591
5.6225142160540	0.97273436306861
5.6151424985952	0.97268442936982
5.6077900860456	0.97263450871825
5.6004569026714	0.97258460102482
5.5931428731343	0.97253470620264
5.5858479224893	0.97248482416708
5.5785719761816	0.97243495483579
5.5713149600446	0.97238509812869
5.5640768002970	0.97233525396803
5.5568574235403	0.97228542227842
5.5496567567568	0.97223560298681
5.5424747273063	0.97218579602258
5.5353112629247	0.97213600131749
5.5281662917204	0.97208621880578
5.5210397421731	0.97203644842413
5.5139315431304	0.97198669011171
5.5068416238060	0.97193694381020
5.4997699137773	0.97188720946384
5.4927163429828	0.97183748701940
5.4856808417200	0.97178777642622
5.4786633406433	0.97173807763626
5.4716637707611	0.97168839060409
5.4646820634342	0.97163871528693
5.4577181503732	0.97158905164464
5.4507719636364	0.97153939963979
5.4438434356274	0.97148975923764
5.4369324990932	0.97144013040615
5.4300390871219	0.97139051311606
5.4231631331404	0.97134090734083
5.4163045709124	0.97129131305673
5.4094633345363	0.97124173024281
5.4026393584430	0.97119215888093
5.3958325773938	0.97114259895580
5.3890429264785	0.97109305045496
5.3822703411131	0.97104351336882
5.3755147570378	0.97099398769068
5.3687761103152	0.97094447341674
5.3620543373278	0.97089497054611
5.3553493747767	0.97084547908082
5.3486611596789	0.97079599902587
5.3419896293656	0.97074653038920
5.3353347214807	0.97069707318173
5.3286963739780	0.97064762741739
5.3220745251198	0.97059819311308
5.3154691134752	0.97054877028875
5.3088800779175	0.97049935896735
5.3023073576229	0.97044995917491
5.2957508920685	0.97040057094049
5.2892106210303	0.97035119429623
5.2826864845815	0.97030182927734
5.2761784230905	0.97025247592215
5.2696863772192	0.97020313427206
5.2632102879213	0.97015380437160
5.2567500964405	0.97010448626845
5.2503057443082	0.97005518001339
5.2438771733427	0.97000588566036
5.2374643256464	0.96995660326647
5.2310671436050	0.96990733289199
5.2246855698850	0.96985807460034
5.2183195474326	0.96980882845817
5.2119690194715	0.96975959453527
5.2056339295016	0.96971037290468
5.1993142212973	0.96966116364262
5.1930098389052	0.96961196682852
5.1867207266436	0.96956278254506
5.1804468290997	0.96951361087813
5.1741880911288	0.96946445191686
5.1679444578521	0.96941530575361
5.1617158746556	0.96936617248402
5.1555022871883	0.96931705220696
5.1493036413604	0.96926794502455
5.1431198833419	0.96921885104219
5.1369509595613	0.96916977036855
5.1307968167037	0.96912070311556
5.1246574017094	0.96907164939843
5.1185326617722	0.96902260933565
5.1124225443383	0.96897358304900
5.1063269971044	0.96892457066354
5.1002459680163	0.96887557230760
5.0941794052676	0.96882658811282
5.0881272572980	0.96877761821413
5.0820894727920	0.96872866274976
5.0760660006773	0.96867972186120
5.0700567901235	0.96863079569328
5.0640617905405	0.96858188439410
5.0580809515775	0.96853298811505
5.0521142231210	0.96848410701083
5.0461615552937	0.96843524123944
5.0402228984533	0.96838639096215
5.0342982031906	0.96833755634355
5.0283874203287	0.96828873755151
5.0224905009214	0.96823993475718
5.0166073962517	0.96819114813501
5.0107380578305	0.96814237786273
5.0048824373957	0.96809362412136
4.9990404869101	0.96804488709519
4.9932121585610	0.96799616697180
4.9873974047579	0.96794746394201
4.9815961781323	0.96789877819995
4.9758084315353	0.96785010994298
4.9700341180371	0.96780145937173
4.9642731909256	0.96775282669010
4.9585256037049	0.96770421210521
4.9527913100942	0.96765561582745
4.9470702640264	0.96760703807041
4.9413624196473	0.96755847905095
4.9356677313138	0.96750993898913
4.9299861535932	0.96746141810824
4.9243176412615	0.96741291663476
4.9186621493027	0.96736443479839
4.9130196329072	0.96731597283201
4.9073900474709	0.96726753097170
4.9017733485939	0.96721910945669
4.8961694920790	0.96717070852942
4.8905784339315	0.96712232843544
4.8850001303569	0.96707396942349
4.8794345377604	0.96702563174541
4.8738816127459	0.96697731565621
4.8683413121143	0.96692902141398
4.8628135928629	0.96688074927994
4.8572984121841	0.96683249951839
4.8517957274640	0.96678427239674
4.8463054962819	0.96673606818545
4.8408276764088	0.96668788715804
4.8353622258065	0.96663972959109
