#Parameters = {thARC=1; nARC=1; thsub=1; p=1; nSub=1.5}
#"Wavelength / um"	"T (114) [Real Part]"
#---------------------------------------
14.989622900000	0.95999992374827
14.937342202292	0.95999993479167
14.885424925521	0.95999994553607
14.833867293419	0.95999995598503
14.782665581854	0.95999996614209
14.731816117936	0.95999997601078
14.681315279138	0.95999998559461
14.631159492435	0.95999999489708
14.581345233463	0.96000000392164
14.531869025691	0.96000001267176
14.482727439614	0.96000002115087
14.433917091960	0.96000002936239
14.385434644914	0.96000003730972
14.337276805356	0.96000004499622
14.289440324118	0.96000005242527
14.241921995249	0.96000005960020
14.194718655303	0.96000006652434
14.147827182633	0.96000007320099
14.101244496707	0.96000007963342
14.054967557431	0.96000008582492
14.008993364486	0.96000009177872
13.963318956684	0.96000009749804
13.917941411328	0.96000010298611
13.872857843591	0.96000010824609
13.828065405904	0.96000011328118
13.783561287356	0.96000011809450
13.739342713107	0.96000012268920
13.695406943810	0.96000012706838
13.651751275046	0.96000013123514
13.608373036768	0.96000013519254
13.565269592760	0.96000013894364
13.522438340099	0.96000014249147
13.479876708633	0.96000014583905
13.437582160466	0.96000014898937
13.395552189455	0.96000015194540
13.353784320713	0.96000015471010
13.312276110124	0.96000015728640
13.271025143869	0.96000015967721
13.230029037952	0.96000016188544
13.189285437747	0.96000016391395
13.148792017544	0.96000016576561
13.108546480105	0.96000016744325
13.068546556234	0.96000016894968
13.028790004346	0.96000017028770
12.989274610052	0.96000017146009
12.949998185745	0.96000017246960
12.910958570198	0.96000017331898
12.872153628167	0.96000017401093
12.833581250000	0.96000017454816
12.795239351259	0.96000017493334
12.757125872340	0.96000017516913
12.719238778108	0.96000017525817
12.681576057530	0.96000017520307
12.644135723323	0.96000017500643
12.606915811606	0.96000017467082
12.569914381551	0.96000017419882
12.533129515050	0.96000017359294
12.496559316382	0.96000017285572
12.460201911887	0.96000017198965
12.424055449648	0.96000017099720
12.388118099174	0.96000016988083
12.352388051092	0.96000016864298
12.316863516845	0.96000016728607
12.281542728390	0.96000016581250
12.246423937908	0.96000016422464
12.211505417515	0.96000016252486
12.176785458976	0.96000016071548
12.142262373431	0.96000015879883
12.107934491115	0.96000015677721
12.073800161095	0.96000015465289
12.039857751004	0.96000015242813
12.006105646776	0.96000015010517
11.972542252396	0.96000014768623
11.939165989646	0.96000014517351
11.905975297855	0.96000014256918
11.872968633663	0.96000013987541
11.840144470774	0.96000013709433
11.807501299724	0.96000013422806
11.775037627651	0.96000013127871
11.742751978065	0.96000012824835
11.710642890625	0.96000012513904
11.678708920919	0.96000012195283
11.646948640249	0.96000011869172
11.615360635413	0.96000011535773
11.583943508501	0.96000011195284
11.552695876686	0.96000010847901
11.521616372022	0.96000010493817
11.490703641242	0.96000010133225
11.459956345566	0.96000009766316
11.429373160503	0.96000009393278
11.398952775665	0.96000009014297
11.368693894577	0.96000008629558
11.338595234493	0.96000008239243
11.308655526217	0.96000007843532
11.278873513920	0.96000007442605
11.249247954972	0.96000007036638
11.219777619760	0.96000006625805
11.190461291527	0.96000006210281
11.161297766195	0.96000005790235
11.132285852209	0.96000005365836
11.103424370370	0.96000004937253
11.074712153676	0.96000004504649
11.046148047163	0.96000004068188
11.017730907755	0.96000003628032
10.989459604106	0.96000003184340
10.961333016453	0.96000002737270
10.933350036470	0.96000002286977
10.905509567115	0.96000001833615
10.877810522496	0.96000001377337
10.850251827723	0.96000000918291
10.822832418773	0.96000000456627
10.795551242348	0.95999999992491
10.768407255747	0.95999999526026
10.741399426729	0.95999999057377
10.714526733381	0.95999998586683
10.687788163993	0.95999998114083
10.661182716927	0.95999997639716
10.634709400497	0.95999997163714
10.608367232838	0.95999996686214
10.582155241793	0.95999996207345
10.556072464789	0.95999995727237
10.530117948718	0.95999995246019
10.504290749825	0.95999994763817
10.478589933590	0.95999994280755
10.453014574616	0.95999993796955
10.427563756522	0.95999993312539
10.402236571825	0.95999992827625
10.377032121841	0.95999992342331
10.351949516575	0.95999991856771
10.326987874612	0.95999991371061
10.302146323024	0.95999990885310
10.277423997257	0.95999990399631
10.252820041040	0.95999989914131
10.228333606278	0.95999989428916
10.203963852961	0.95999988944092
10.179709949066	0.95999988459762
10.155571070461	0.95999987976028
10.131546400811	0.95999987492988
10.107635131490	0.95999987010742
10.083836461487	0.95999986529386
10.060149597315	0.95999986049013
10.036573752929	0.95999985569718
10.013108149633	0.95999985091592
9.9897520159947	0.95999984614723
9.9665045877660	0.95999984139201
9.9433651077944	0.95999983665111
9.9203328259431	0.95999983192538
9.8974069990096	0.95999982721565
9.8745868906456	0.95999982252273
9.8518717712783	0.95999981784743
9.8292609180328	0.95999981319052
9.8067536146549	0.95999980855277
9.7843491514360	0.95999980393492
9.7620468251384	0.95999979933772
9.7398459389214	0.95999979476187
9.7177458022690	0.95999979020808
9.6957457309185	0.95999978567703
9.6738450467893	0.95999978116939
9.6520430779137	0.95999977668583
9.6303391583681	0.95999977222697
9.6087326282051	0.95999976779343
9.5872228333866	0.95999976338584
9.5658091257179	0.95999975900478
9.5444908627826	0.95999975465082
9.5232674078780	0.95999975032453
9.5021381299525	0.95999974602646
9.4811024035421	0.95999974175713
9.4601596087094	0.95999973751708
9.4393091309824	0.95999973330679
9.4185503612944	0.95999972912676
9.3978826959248	0.95999972497746
9.3773055364404	0.95999972085934
9.3568182896380	0.95999971677286
9.3364203674868	0.95999971271845
9.3161111870727	0.95999970869651
9.2958901705426	0.95999970470745
9.2757567450495	0.95999970075166
9.2557103426984	0.95999969682952
9.2357504004929	0.95999969294137
9.2158763602828	0.95999968908757
9.1960876687117	0.95999968526845
9.1763837771656	0.95999968148433
9.1567641417227	0.95999967773550
9.1372282231027	0.95999967402228
9.1177754866180	0.95999967034492
9.0984054021244	0.95999966670370
9.0791174439733	0.95999966309886
9.0599110909640	0.95999965953065
9.0407858262967	0.95999965599929
9.0217411375263	0.95999965250500
9.0027765165165	0.95999964904796
8.9838914593947	0.95999964562838
8.9650854665072	0.95999964224642
8.9463580423754	0.95999963890225
8.9277086956522	0.95999963559601
8.9091369390788	0.95999963232784
8.8906422894425	0.95999962909787
8.8722242675348	0.95999962590621
8.8538823981099	0.95999962275296
8.8356162098438	0.95999961963821
8.8174252352941	0.95999961656203
8.7993090108600	0.95999961352449
8.7812670767428	0.95999961052564
8.7632989769073	0.95999960756553
8.7454042590432	0.95999960464418
8.7275824745269	0.95999960176161
8.7098331783847	0.95999959891784
8.6921559292549	0.95999959611285
8.6745502893519	0.95999959334663
8.6570158244297	0.95999959061916
8.6395521037464	0.95999958793039
8.6221587000288	0.95999958528029
8.6048351894374	0.95999958266879
8.5875811515325	0.95999958009583
8.5703961692396	0.95999957756132
8.5532798288160	0.95999957506517
8.5362317198178	0.95999957260729
8.5192514350668	0.95999957018757
8.5023385706183	0.95999956780587
8.4854927257288	0.95999956546209
8.4687135028249	0.95999956315606
8.4520005074711	0.95999956088765
8.4353533483399	0.95999955865670
8.4187716371806	0.95999955646302
8.4022549887892	0.95999955430646
8.3858030209790	0.95999955218681
8.3694153545505	0.95999955010388
8.3530916132627	0.95999954805747
8.3368314238042	0.95999954604735
8.3206344157646	0.95999954407331
8.3045002216066	0.95999954213511
8.2884284766381	0.95999954023250
8.2724188189845	0.95999953836524
8.2564708895621	0.95999953653307
8.2405843320506	0.95999953473571
8.2247587928669	0.95999953297290
8.2089939211391	0.95999953124434
8.1932893686800	0.95999952954975
8.1776447899618	0.95999952788882
8.1620598420909	0.95999952626125
8.1465341847826	0.95999952466671
8.1310674803363	0.95999952310489
8.1156593936113	0.95999952157545
8.1003095920022	0.95999952007805
8.0850177454153	0.95999951861235
8.0697835262450	0.95999951717798
8.0546066093498	0.95999951577460
8.0394866720300	0.95999951440182
8.0244233940043	0.95999951305928
8.0094164573871	0.95999951174660
7.9944655466667	0.95999951046337
7.9795703486825	0.95999950920921
7.9647305526036	0.95999950798371
7.9499458499072	0.95999950678647
7.9352159343568	0.95999950561706
7.9205405019815	0.95999950447508
7.9059192510549	0.95999950336007
7.8913518820742	0.95999950227163
7.8768380977404	0.95999950120930
7.8623776029373	0.95999950017263
7.8479701047120	0.95999949916118
7.8336153122550	0.95999949817449
7.8193129368805	0.95999949721209
7.8050626920073	0.95999949627352
7.7908642931393	0.95999949535830
7.7767174578470	0.95999949446596
7.7626219057483	0.95999949359600
7.7485773584906	0.95999949274795
7.7345835397317	0.95999949192130
7.7206401751223	0.95999949111555
7.7067469922879	0.95999949033021
7.6929037208109	0.95999948956476
7.6791100922131	0.95999948881869
7.6653658399386	0.95999948809149
7.6516706993364	0.95999948738263
7.6380244076433	0.95999948669158
7.6244267039674	0.95999948601781
7.6108773292714	0.95999948536080
7.5973760263558	0.95999948472000
7.5839225398432	0.95999948409487
7.5705166161616	0.95999948348486
7.5571580035291	0.95999948288943
7.5438464519376	0.95999948230802
7.5305817131374	0.95999948174008
7.5173635406219	0.95999948118504
7.5041916896120	0.95999948064235
7.4910659170415	0.95999948011144
7.4779859815415	0.95999947959173
7.4649516434263	0.95999947908266
7.4519626646781	0.95999947858366
7.4390188089330	0.95999947809414
7.4261198414664	0.95999947761353
7.4132655291790	0.95999947714124
7.4004556405826	0.95999947667669
7.3876899457861	0.95999947621929
7.3749682164822	0.95999947576845
7.3622902259332	0.95999947532358
7.3496557489581	0.95999947488409
7.3370645619187	0.95999947444938
7.3245164427071	0.95999947401886
7.3120111707317	0.95999947359192
7.2995485269053	0.95999947316796
7.2871282936315	0.95999947274639
7.2747502547925	0.95999947232660
7.2624141957364	0.95999947190798
7.2501199032648	0.95999947148993
7.2378671656205	0.95999947107184
7.2256557724753	0.95999947065310
7.2134855149182	0.95999947023311
7.2013561854432	0.95999946981125
7.1892675779376	0.95999946938691
7.1772194876706	0.95999946895949
7.1652117112811	0.95999946852837
7.1532440467669	0.95999946809293
7.1413162934731	0.95999946765256
7.1294282520809	0.95999946720666
7.1175797245964	0.95999946675461
7.1057705143399	0.95999946629578
7.0940004259347	0.95999946582958
7.0822692652965	0.95999946535539
7.0705768396226	0.95999946487259
7.0589229573817	0.95999946438058
7.0473074283028	0.95999946387873
7.0357300633654	0.95999946336644
7.0241906747891	0.95999946284310
7.0126890760234	0.95999946230809
7.0012250817375	0.95999946176081
6.9897985078107	0.95999946120064
6.9784091713222	0.95999946062697
6.9670568905415	0.95999946003921
6.9557414849188	0.95999945943675
6.9444627750753	0.95999945881896
6.9332205827937	0.95999945818527
6.9220147310090	0.95999945753506
6.9108450437990	0.95999945686773
6.8997113463751	0.95999945618268
6.8886134650735	0.95999945547931
6.8775512273457	0.95999945475703
6.8665244617499	0.95999945401525
6.8555329979419	0.95999945325336
6.8445766666667	0.95999945247079
6.8336552997493	0.95999945166693
6.8227687300865	0.95999945084122
6.8119167916383	0.95999944999305
6.8010993194192	0.95999944912185
6.7903161494904	0.95999944822704
6.7795671189507	0.95999944730805
6.7688520659291	0.95999944636429
6.7581708295762	0.95999944539520
6.7475232500563	0.95999944440021
6.7369091685393	0.95999944337874
6.7263284271932	0.95999944233025
6.7157808691756	0.95999944125416
6.7052663386267	0.95999944014992
6.6947846806610	0.95999943901697
6.6843357413601	0.95999943785477
6.6739193677649	0.95999943666276
6.6635354078684	0.95999943544040
6.6531837106081	0.95999943418715
6.6428641258586	0.95999943290248
6.6325765044248	0.95999943158584
6.6223206980340	0.95999943023670
6.6120965593295	0.95999942885455
6.6019039418630	0.95999942743885
6.5917427000879	0.95999942598909
6.5816126893524	0.95999942450476
6.5715137658922	0.95999942298533
6.5614457868243	0.95999942143031
6.5514086101399	0.95999941983918
6.5414020946978	0.95999941821146
6.5314261002179	0.95999941654665
6.5214804872743	0.95999941484425
6.5115651172893	0.95999941310379
6.5016798525266	0.95999941132477
6.4918245560849	0.95999940950673
6.4819990918919	0.95999940764919
6.4722033246978	0.95999940575169
6.4624371200690	0.95999940381376
6.4527003443823	0.95999940183494
6.4429928648184	0.95999939981478
6.4333145493562	0.95999939775284
6.4236652667667	0.95999939564867
6.4140448866068	0.95999939350183
6.4044532792138	0.95999939131189
6.3948903156997	0.95999938907843
6.3853558679446	0.95999938680102
6.3758498085921	0.95999938447924
6.3663720110427	0.95999938211269
6.3569223494487	0.95999937970096
6.3475006987084	0.95999937724365
6.3381069344609	0.95999937474036
6.3287409330800	0.95999937219071
6.3194025716695	0.95999936959431
6.3100917280572	0.95999936695078
6.3008082807902	0.95999936425976
6.2915521091291	0.95999936152088
6.2823230930427	0.95999935873377
6.2731211132036	0.95999935589809
6.2639460509820	0.95999935301349
6.2547977884415	0.95999935007963
6.2456762083333	0.95999934709616
6.2365811940919	0.95999934406276
6.2275126298297	0.95999934097912
6.2184704003319	0.95999933784491
6.2094543910522	0.95999933465981
6.2004644881075	0.95999933142354
6.1915005782734	0.95999932813579
6.1825625489792	0.95999932479627
6.1736502883031	0.95999932140470
6.1647636849681	0.95999931796079
6.1559026283368	0.95999931446429
6.1470670084068	0.95999931091492
6.1382567158067	0.95999930731242
6.1294716417910	0.95999930365656
6.1207116782360	0.95999929994707
6.1119767176351	0.95999929618374
6.1032666530945	0.95999929236632
6.0945813783289	0.95999928849459
6.0859207876573	0.95999928456835
6.0772847759984	0.95999928058737
6.0686732388664	0.95999927655146
6.0600860723671	0.95999927246043
6.0515231731934	0.95999926831408
6.0429844386212	0.95999926411224
6.0344697665056	0.95999925985473
6.0259790552764	0.95999925554139
6.0175122039342	0.95999925117207
6.0090691120465	0.95999924674660
6.0006496797438	0.95999924226485
5.9922538077154	0.95999923772668
5.9838813972056	0.95999923313197
5.9755323500100	0.95999922848059
5.9672065684713	0.95999922377243
5.9589039554760	0.95999921900738
5.9506244144502	0.95999921418535
5.9423678493558	0.95999920930624
5.9341341646873	0.95999920436998
5.9259232654675	0.95999919937648
5.9177350572444	0.95999919432569
5.9095694460871	0.95999918921753
5.9014263385827	0.95999918405197
5.8933056418321	0.95999917882896
5.8852072634472	0.95999917354845
5.8771311115468	0.95999916821043
5.8690770947533	0.95999916281487
5.8610451221896	0.95999915736176
5.8530351034752	0.95999915185110
5.8450469487229	0.95999914628289
5.8370805685358	0.95999914065714
5.8291358740035	0.95999913497387
5.8212127766990	0.95999912923311
5.8133111886756	0.95999912343490
5.8054310224632	0.95999911757928
5.7975721910656	0.95999911166630
5.7897346079567	0.95999910569602
5.7819181870781	0.95999909966851
5.7741228428351	0.95999909358384
5.7663484900942	0.95999908744211
5.7585950441798	0.95999908124340
5.7508624208709	0.95999907498782
5.7431505363985	0.95999906867547
5.7354593074421	0.95999906230647
5.7277886511272	0.95999905588095
5.7201384850219	0.95999904939904
5.7125087271341	0.95999904286088
5.7048992959087	0.95999903626663
5.6973101102242	0.95999902961644
5.6897410893908	0.95999902291048
5.6821921531463	0.95999901614893
5.6746632216544	0.95999900933196
5.6671542155009	0.95999900245978
5.6596650556919	0.95999899553257
5.6521956636501	0.95999898855055
5.6447459612126	0.95999898151394
5.6373158706281	0.95999897442296
5.6299053145540	0.95999896727785
5.6225142160540	0.95999896007884
5.6151424985952	0.95999895282619
5.6077900860456	0.95999894552015
5.6004569026714	0.95999893816100
5.5931428731343	0.95999893074900
5.5858479224893	0.95999892328444
5.5785719761816	0.95999891576761
5.5713149600446	0.95999890819882
5.5640768002970	0.95999890057837
5.5568574235403	0.95999889290657
5.5496567567568	0.95999888518376
5.5424747273063	0.95999887741026
5.5353112629247	0.95999886958642
5.5281662917204	0.95999886171259
5.5210397421731	0.95999885378912
5.5139315431304	0.95999884581639
5.5068416238060	0.95999883779476
5.4997699137773	0.95999882972462
5.4927163429828	0.95999882160636
5.4856808417200	0.95999881344039
5.4786633406433	0.95999880522710
5.4716637707611	0.95999879696691
5.4646820634342	0.95999878866025
5.4577181503732	0.95999878030756
5.4507719636364	0.95999877190926
5.4438434356274	0.95999876346582
5.4369324990932	0.95999875497767
5.4300390871219	0.95999874644530
5.4231631331404	0.95999873786918
5.4163045709124	0.95999872924978
5.4094633345363	0.95999872058759
5.4026393584430	0.95999871188311
5.3958325773938	0.95999870313685
5.3890429264785	0.95999869434931
5.3822703411131	0.95999868552103
5.3755147570378	0.95999867665252
5.3687761103152	0.95999866774433
5.3620543373278	0.95999865879700
5.3553493747767	0.95999864981108
5.3486611596789	0.95999864078713
5.3419896293656	0.95999863172573
5.3353347214807	0.95999862262744
5.3286963739780	0.95999861349286
5.3220745251198	0.95999860432256
5.3154691134752	0.95999859511716
5.3088800779175	0.95999858587726
5.3023073576229	0.95999857660347
5.2957508920685	0.95999856729642
5.2892106210303	0.95999855795673
5.2826864845815	0.95999854858504
5.2761784230905	0.95999853918200
5.2696863772192	0.95999852974826
5.2632102879213	0.95999852028448
5.2567500964405	0.95999851079132
5.2503057443082	0.95999850126947
5.2438771733427	0.95999849171960
5.2374643256464	0.95999848214239
5.2310671436050	0.95999847253856
5.2246855698850	0.95999846290880
5.2183195474326	0.95999845325381
5.2119690194715	0.95999844357433
5.2056339295016	0.95999843387107
5.1993142212973	0.95999842414477
5.1930098389052	0.95999841439616
5.1867207266436	0.95999840462600
5.1804468290997	0.95999839483502
5.1741880911288	0.95999838502400
5.1679444578521	0.95999837519370
5.1617158746556	0.95999836534490
5.1555022871883	0.95999835547836
5.1493036413604	0.95999834559489
5.1431198833419	0.95999833569527
5.1369509595613	0.95999832578029
5.1307968167037	0.95999831585078
5.1246574017094	0.95999830590755
5.1185326617722	0.95999829595140
5.1124225443383	0.95999828598317
5.1063269971044	0.95999827600368
5.1002459680163	0.95999826601379
5.0941794052676	0.95999825601432
5.0881272572980	0.95999824600614
5.0820894727920	0.95999823599010
5.0760660006773	0.95999822596705
5.0700567901235	0.95999821593788
5.0640617905405	0.95999820590346
5.0580809515775	0.95999819586465
5.0521142231210	0.95999818582237
5.0461615552937	0.95999817577748
5.0402228984533	0.95999816573090
5.0342982031906	0.95999815568352
5.0283874203287	0.95999814563626
5.0224905009214	0.95999813559003
5.0166073962517	0.95999812554574
5.0107380578305	0.95999811550434
5.0048824373957	0.95999810546673
4.9990404869101	0.95999809543387
4.9932121585610	0.95999808540670
4.9873974047579	0.95999807538615
4.9815961781323	0.95999806537318
4.9758084315353	0.95999805536876
4.9700341180371	0.95999804537383
4.9642731909256	0.95999803538936
4.9585256037049	0.95999802541634
4.9527913100942	0.95999801545572
4.9470702640264	0.95999800550850
4.9413624196473	0.95999799557566
4.9356677313138	0.95999798565819
4.9299861535932	0.95999797575707
4.9243176412615	0.95999796587332
4.9186621493027	0.95999795600793
4.9130196329072	0.95999794616192
4.9073900474709	0.95999793633628
4.9017733485939	0.95999792653204
4.8961694920790	0.95999791675021
4.8905784339315	0.95999790699183
4.8850001303569	0.95999789725791
4.8794345377604	0.95999788754949
4.8738816127459	0.95999787786760
4.8683413121143	0.95999786821328
4.8628135928629	0.95999785858758
4.8572984121841	0.95999784899153
4.8517957274640	0.95999783942618
4.8463054962819	0.95999782989260
4.8408276764088	0.95999782039183
4.8353622258065	0.95999781092492
