#Parameters = {thARC=0.2; nARC=1.25; thsub=1; p=1; nSub=1.5}
#"Wavelength / um"	"T (116) [Real Part]"
#---------------------------------------
14.989622900000	0.96041609894186
14.937342202292	0.96044333973874
14.885424925521	0.96047016782760
14.833867293419	0.96049658681631
14.782665581854	0.96052260030018
14.731816117936	0.96054821186193
14.681315279138	0.96057342507159
14.631159492435	0.96059824348650
14.581345233463	0.96062267065118
14.531869025691	0.96064671009731
14.482727439614	0.96067036534370
14.433917091960	0.96069363989619
14.385434644914	0.96071653724761
14.337276805356	0.96073906087775
14.289440324118	0.96076121425326
14.241921995249	0.96078300082765
14.194718655303	0.96080442404121
14.147827182633	0.96082548732097
14.101244496707	0.96084619408064
14.054967557431	0.96086654772056
14.008993364486	0.96088655162769
13.963318956684	0.96090620917550
13.917941411328	0.96092552372398
13.872857843591	0.96094449861957
13.828065405904	0.96096313719511
13.783561287356	0.96098144276981
13.739342713107	0.96099941864922
13.695406943810	0.96101706812514
13.651751275046	0.96103439447563
13.608373036768	0.96105140096495
13.565269592760	0.96106809084350
13.522438340099	0.96108446734783
13.479876708633	0.96110053370054
13.437582160466	0.96111629311031
13.395552189455	0.96113174877181
13.353784320713	0.96114690386569
13.312276110124	0.96116176155852
13.271025143869	0.96117632500281
13.230029037952	0.96119059733691
13.189285437747	0.96120458168502
13.148792017544	0.96121828115717
13.108546480105	0.96123169884912
13.068546556234	0.96124483784241
13.028790004346	0.96125770120428
12.989274610052	0.96127029198768
12.949998185745	0.96128261323119
12.910958570198	0.96129466795903
12.872153628167	0.96130645918105
12.833581250000	0.96131798989265
12.795239351259	0.96132926307480
12.757125872340	0.96134028169398
12.719238778108	0.96135104870221
12.681576057530	0.96136156703697
12.644135723323	0.96137183962121
12.606915811606	0.96138186936331
12.569914381551	0.96139165915708
12.533129515050	0.96140121188172
12.496559316382	0.96141053040183
12.460201911887	0.96141961756735
12.424055449648	0.96142847621356
12.388118099174	0.96143710916109
12.352388051092	0.96144551921585
12.316863516845	0.96145370916907
12.281542728390	0.96146168179725
12.246423937908	0.96146943986214
12.211505417515	0.96147698611076
12.176785458976	0.96148432327536
12.142262373431	0.96149145407340
12.107934491115	0.96149838120758
12.073800161095	0.96150510736579
12.039857751004	0.96151163522109
12.006105646776	0.96151796743175
11.972542252396	0.96152410664121
11.939165989646	0.96153005547806
11.905975297855	0.96153581655606
11.872968633663	0.96154139247410
11.840144470774	0.96154678581622
11.807501299724	0.96155199915162
11.775037627651	0.96155703503461
11.742751978065	0.96156189600461
11.710642890625	0.96156658458620
11.678708920919	0.96157110328905
11.646948640249	0.96157545460796
11.615360635413	0.96157964102285
11.583943508501	0.96158366499874
11.552695876686	0.96158752898577
11.521616372022	0.96159123541918
11.490703641242	0.96159478671934
11.459956345566	0.96159818529173
11.429373160503	0.96160143352694
11.398952775665	0.96160453380066
11.368693894577	0.96160748847374
11.338595234493	0.96161029989212
11.308655526217	0.96161297038687
11.278873513920	0.96161550227422
11.249247954972	0.96161789785549
11.219777619760	0.96162015941718
11.190461291527	0.96162228923093
11.161297766195	0.96162428955353
11.132285852209	0.96162616262693
11.103424370370	0.96162791067825
11.074712153676	0.96162953591980
11.046148047163	0.96163104054908
11.017730907755	0.96163242674877
10.989459604106	0.96163369668677
10.961333016453	0.96163485251619
10.933350036470	0.96163589637538
10.905509567115	0.96163683038794
10.877810522496	0.96163765666269
10.850251827723	0.96163837729375
10.822832418773	0.96163899436051
10.795551242348	0.96163950992764
10.768407255747	0.96163992604514
10.741399426729	0.96164024474832
10.714526733381	0.96164046805784
10.687788163993	0.96164059797969
10.661182716927	0.96164063650526
10.634709400497	0.96164058561131
10.608367232838	0.96164044726001
10.582155241793	0.96164022339895
10.556072464789	0.96163991596118
10.530117948718	0.96163952686518
10.504290749825	0.96163905801493
10.478589933590	0.96163851129992
10.453014574616	0.96163788859513
10.427563756522	0.96163719176110
10.402236571825	0.96163642264393
10.377032121841	0.96163558307531
10.351949516575	0.96163467487252
10.326987874612	0.96163369983849
10.302146323024	0.96163265976179
10.277423997257	0.96163155641666
10.252820041040	0.96163039156305
10.228333606278	0.96162916694664
10.203963852961	0.96162788429884
10.179709949066	0.96162654533686
10.155571070461	0.96162515176368
10.131546400811	0.96162370526814
10.107635131490	0.96162220752490
10.083836461487	0.96162066019453
10.060149597315	0.96161906492349
10.036573752929	0.96161742334419
10.013108149633	0.96161573707499
9.9897520159947	0.96161400772025
9.9665045877660	0.96161223687035
9.9433651077944	0.96161042610173
9.9203328259431	0.96160857697691
9.8974069990096	0.96160669104451
9.8745868906456	0.96160476983930
9.8518717712783	0.96160281488225
9.8292609180328	0.96160082768049
9.8067536146549	0.96159880972742
9.7843491514360	0.96159676250270
9.7620468251384	0.96159468747230
9.7398459389214	0.96159258608851
9.7177458022690	0.96159045979002
9.6957457309185	0.96158831000190
9.6738450467893	0.96158613813565
9.6520430779137	0.96158394558927
9.6303391583681	0.96158173374724
9.6087326282051	0.96157950398062
9.5872228333866	0.96157725764700
9.5658091257179	0.96157499609061
9.5444908627826	0.96157272064235
9.5232674078780	0.96157043261977
9.5021381299525	0.96156813332717
9.4811024035421	0.96156582405560
9.4601596087094	0.96156350608292
9.4393091309824	0.96156118067381
9.4185503612944	0.96155884907985
9.3978826959248	0.96155651253952
9.3773055364404	0.96155417227825
9.3568182896380	0.96155182950847
9.3364203674868	0.96154948542965
9.3161111870727	0.96154714122833
9.2958901705426	0.96154479807815
9.2757567450495	0.96154245713991
9.2557103426984	0.96154011956161
9.2357504004929	0.96153778647849
9.2158763602828	0.96153545901305
9.1960876687117	0.96153313827513
9.1763837771656	0.96153082536192
9.1567641417227	0.96152852135801
9.1372282231027	0.96152622733544
9.1177754866180	0.96152394435375
9.0984054021244	0.96152167345999
9.0791174439733	0.96151941568881
9.0599110909640	0.96151717206247
9.0407858262967	0.96151494359089
9.0217411375263	0.96151273127170
9.0027765165165	0.96151053609028
8.9838914593947	0.96150835901982
8.9650854665072	0.96150620102134
8.9463580423754	0.96150406304375
8.9277086956522	0.96150194602389
8.9091369390788	0.96149985088660
8.8906422894425	0.96149777854473
8.8722242675348	0.96149572989919
8.8538823981099	0.96149370583903
8.8356162098438	0.96149170724146
8.8174252352941	0.96148973497189
8.7993090108600	0.96148778988401
8.7812670767428	0.96148587281980
8.7632989769073	0.96148398460960
8.7454042590432	0.96148212607216
8.7275824745269	0.96148029801468
8.7098331783847	0.96147850123284
8.6921559292549	0.96147673651090
8.6745502893519	0.96147500462170
8.6570158244297	0.96147330632672
8.6395521037464	0.96147164237614
8.6221587000288	0.96147001350890
8.6048351894374	0.96146842045272
8.5875811515325	0.96146686392417
8.5703961692396	0.96146534462870
8.5532798288160	0.96146386326072
8.5362317198178	0.96146242050364
8.5192514350668	0.96146101702991
8.5023385706183	0.96145965350107
8.4854927257288	0.96145833056781
8.4687135028249	0.96145704887002
8.4520005074711	0.96145580903686
8.4353533483399	0.96145461168676
8.4187716371806	0.96145345742752
8.4022549887892	0.96145234685635
8.3858030209790	0.96145128055990
8.3694153545505	0.96145025911436
8.3530916132627	0.96144928308545
8.3368314238042	0.96144835302852
8.3206344157646	0.96144746948859
8.3045002216066	0.96144663300040
8.2884284766381	0.96144584408846
8.2724188189845	0.96144510326710
8.2564708895621	0.96144441104054
8.2405843320506	0.96144376790294
8.2247587928669	0.96144317433842
8.2089939211391	0.96144263082118
8.1932893686800	0.96144213781547
8.1776447899618	0.96144169577573
8.1620598420909	0.96144130514657
8.1465341847826	0.96144096636288
8.1310674803363	0.96144067984985
8.1156593936113	0.96144044602304
8.1003095920022	0.96144026528843
8.0850177454153	0.96144013804247
8.0697835262450	0.96144006467214
8.0546066093498	0.96144004555502
8.0394866720300	0.96144008105932
8.0244233940043	0.96144017154393
8.0094164573871	0.96144031735852
7.9944655466667	0.96144051884355
7.9795703486825	0.96144077633035
7.9647305526036	0.96144109014115
7.9499458499072	0.96144146058916
7.9352159343568	0.96144188797864
7.9205405019815	0.96144237260491
7.9059192510549	0.96144291475444
7.8913518820742	0.96144351470489
7.8768380977404	0.96144417272518
7.8623776029373	0.96144488907554
7.8479701047120	0.96144566400757
7.8336153122550	0.96144649776428
7.8193129368805	0.96144739058016
7.8050626920073	0.96144834268124
7.7908642931393	0.96144935428515
7.7767174578470	0.96145042560115
7.7626219057483	0.96145155683022
7.7485773584906	0.96145274816509
7.7345835397317	0.96145399979031
7.7206401751223	0.96145531188233
7.7067469922879	0.96145668460951
7.6929037208109	0.96145811813218
7.6791100922131	0.96145961260277
7.6653658399386	0.96146116816577
7.6516706993364	0.96146278495786
7.6380244076433	0.96146446310790
7.6244267039674	0.96146620273708
7.6108773292714	0.96146800395888
7.5973760263558	0.96146986687918
7.5839225398432	0.96147179159632
7.5705166161616	0.96147377820115
7.5571580035291	0.96147582677706
7.5438464519376	0.96147793740007
7.5305817131374	0.96148011013890
7.5173635406219	0.96148234505497
7.5041916896120	0.96148464220251
7.4910659170415	0.96148700162862
7.4779859815415	0.96148942337327
7.4649516434263	0.96149190746943
7.4519626646781	0.96149445394308
7.4390188089330	0.96149706281328
7.4261198414664	0.96149973409224
7.4132655291790	0.96150246778535
7.4004556405826	0.96150526389127
7.3876899457861	0.96150812240197
7.3749682164822	0.96151104330279
7.3622902259332	0.96151402657249
7.3496557489581	0.96151707218332
7.3370645619187	0.96152018010109
7.3245164427071	0.96152335028519
7.3120111707317	0.96152658268867
7.2995485269053	0.96152987725832
7.2871282936315	0.96153323393468
7.2747502547925	0.96153665265213
7.2624141957364	0.96154013333894
7.2501199032648	0.96154367591734
7.2378671656205	0.96154728030354
7.2256557724753	0.96155094640783
7.2134855149182	0.96155467413463
7.2013561854432	0.96155846338251
7.1892675779376	0.96156231404430
7.1772194876706	0.96156622600711
7.1652117112811	0.96157019915241
7.1532440467669	0.96157423335607
7.1413162934731	0.96157832848844
7.1294282520809	0.96158248441436
7.1175797245964	0.96158670099330
7.1057705143399	0.96159097807932
7.0940004259347	0.96159531552120
7.0822692652965	0.96159971316247
7.0705768396226	0.96160417084147
7.0589229573817	0.96160868839139
7.0473074283028	0.96161326564037
7.0357300633654	0.96161790241151
7.0241906747891	0.96162259852295
7.0126890760234	0.96162735378794
7.0012250817375	0.96163216801487
6.9897985078107	0.96163704100733
6.9784091713222	0.96164197256418
6.9670568905415	0.96164696247961
6.9557414849188	0.96165201054318
6.9444627750753	0.96165711653990
6.9332205827937	0.96166228025024
6.9220147310090	0.96166750145024
6.9108450437990	0.96167277991154
6.8997113463751	0.96167811540143
6.8886134650735	0.96168350768295
6.8775512273457	0.96168895651486
6.8665244617499	0.96169446165180
6.8555329979419	0.96170002284425
6.8445766666667	0.96170563983865
6.8336552997493	0.96171131237745
6.8227687300865	0.96171704019912
6.8119167916383	0.96172282303827
6.8010993194192	0.96172866062565
6.7903161494904	0.96173455268822
6.7795671189507	0.96174049894925
6.7688520659291	0.96174649912831
6.7581708295762	0.96175255294135
6.7475232500563	0.96175866010077
6.7369091685393	0.96176482031546
6.7263284271932	0.96177103329087
6.7157808691756	0.96177729872904
6.7052663386267	0.96178361632865
6.6947846806610	0.96178998578514
6.6843357413601	0.96179640679066
6.6739193677649	0.96180287903423
6.6635354078684	0.96180940220171
6.6531837106081	0.96181597597591
6.6428641258586	0.96182260003661
6.6325765044248	0.96182927406063
6.6223206980340	0.96183599772188
6.6120965593295	0.96184277069141
6.6019039418630	0.96184959263748
6.5917427000879	0.96185646322559
6.5816126893524	0.96186338211854
6.5715137658922	0.96187034897649
6.5614457868243	0.96187736345701
6.5514086101399	0.96188442521514
6.5414020946978	0.96189153390342
6.5314261002179	0.96189868917197
6.5214804872743	0.96190589066852
6.5115651172893	0.96191313803847
6.5016798525266	0.96192043092496
6.4918245560849	0.96192776896889
6.4819990918919	0.96193515180899
6.4722033246978	0.96194257908188
6.4624371200690	0.96195005042210
6.4527003443823	0.96195756546216
6.4429928648184	0.96196512383264
6.4333145493562	0.96197272516217
6.4236652667667	0.96198036907753
6.4140448866068	0.96198805520368
6.4044532792138	0.96199578316383
6.3948903156997	0.96200355257945
6.3853558679446	0.96201136307037
6.3758498085921	0.96201921425480
6.3663720110427	0.96202710574939
6.3569223494487	0.96203503716927
6.3475006987084	0.96204300812811
6.3381069344609	0.96205101823817
6.3287409330800	0.96205906711034
6.3194025716695	0.96206715435420
6.3100917280572	0.96207527957805
6.3008082807902	0.96208344238898
6.2915521091291	0.96209164239292
6.2823230930427	0.96209987919466
6.2731211132036	0.96210815239793
6.2639460509820	0.96211646160542
6.2547977884415	0.96212480641887
6.2456762083333	0.96213318643907
6.2365811940919	0.96214160126593
6.2275126298297	0.96215005049852
6.2184704003319	0.96215853373513
6.2094543910522	0.96216705057332
6.2004644881075	0.96217560060993
6.1915005782734	0.96218418344117
6.1825625489792	0.96219279866265
6.1736502883031	0.96220144586941
6.1647636849681	0.96221012465600
6.1559026283368	0.96221883461648
6.1470670084068	0.96222757534452
6.1382567158067	0.96223634643340
6.1294716417910	0.96224514747609
6.1207116782360	0.96225397806524
6.1119767176351	0.96226283779331
6.1032666530945	0.96227172625253
6.0945813783289	0.96228064303499
6.0859207876573	0.96228958773269
6.0772847759984	0.96229855993755
6.0686732388664	0.96230755924147
6.0600860723671	0.96231658523641
6.0515231731934	0.96232563751435
6.0429844386212	0.96233471566741
6.0344697665056	0.96234381928787
6.0259790552764	0.96235294796819
6.0175122039342	0.96236210130108
6.0090691120465	0.96237127887953
6.0006496797438	0.96238048029684
5.9922538077154	0.96238970514671
5.9838813972056	0.96239895302322
5.9755323500100	0.96240822352089
5.9672065684713	0.96241751623475
5.9589039554760	0.96242683076035
5.9506244144502	0.96243616669382
5.9423678493558	0.96244552363188
5.9341341646873	0.96245490117193
5.9259232654675	0.96246429891203
5.9177350572444	0.96247371645100
5.9095694460871	0.96248315338840
5.9014263385827	0.96249260932461
5.8933056418321	0.96250208386088
5.8852072634472	0.96251157659930
5.8771311115468	0.96252108714294
5.8690770947533	0.96253061509578
5.8610451221896	0.96254016006283
5.8530351034752	0.96254972165014
5.8450469487229	0.96255929946482
5.8370805685358	0.96256889311511
5.8291358740035	0.96257850221038
5.8212127766990	0.96258812636120
5.8133111886756	0.96259776517937
5.8054310224632	0.96260741827792
5.7975721910656	0.96261708527121
5.7897346079567	0.96262676577491
5.7819181870781	0.96263645940606
5.7741228428351	0.96264616578310
5.7663484900942	0.96265588452591
5.7585950441798	0.96266561525583
5.7508624208709	0.96267535759571
5.7431505363985	0.96268511116996
5.7354593074421	0.96269487560453
5.7277886511272	0.96270465052699
5.7201384850219	0.96271443556655
5.7125087271341	0.96272423035410
5.7048992959087	0.96273403452223
5.6973101102242	0.96274384770525
5.6897410893908	0.96275366953927
5.6821921531463	0.96276349966219
5.6746632216544	0.96277333771373
5.6671542155009	0.96278318333549
5.6596650556919	0.96279303617097
5.6521956636501	0.96280289586559
5.6447459612126	0.96281276206672
5.6373158706281	0.96282263442373
5.6299053145540	0.96283251258801
5.6225142160540	0.96284239621298
5.6151424985952	0.96285228495415
5.6077900860456	0.96286217846915
5.6004569026714	0.96287207641772
5.5931428731343	0.96288197846178
5.5858479224893	0.96289188426543
5.5785719761816	0.96290179349499
5.5713149600446	0.96291170581905
5.5640768002970	0.96292162090846
5.5568574235403	0.96293153843637
5.5496567567568	0.96294145807826
5.5424747273063	0.96295137951197
5.5353112629247	0.96296130241772
5.5281662917204	0.96297122647815
5.5210397421731	0.96298115137831
5.5139315431304	0.96299107680574
5.5068416238060	0.96300100245044
5.4997699137773	0.96301092800493
5.4927163429828	0.96302085316427
5.4856808417200	0.96303077762606
5.4786633406433	0.96304070109050
5.4716637707611	0.96305062326040
5.4646820634342	0.96306054384118
5.4577181503732	0.96307046254093
5.4507719636364	0.96308037907040
5.4438434356274	0.96309029314306
5.4369324990932	0.96310020447508
5.4300390871219	0.96311011278537
5.4231631331404	0.96312001779563
5.4163045709124	0.96312991923031
5.4094633345363	0.96313981681670
5.4026393584430	0.96314971028489
5.3958325773938	0.96315959936783
5.3890429264785	0.96316948380133
5.3822703411131	0.96317936332409
5.3755147570378	0.96318923767773
5.3687761103152	0.96319910660676
5.3620543373278	0.96320896985867
5.3553493747767	0.96321882718389
5.3486611596789	0.96322867833584
5.3419896293656	0.96323852307095
5.3353347214807	0.96324836114864
5.3286963739780	0.96325819233138
5.3220745251198	0.96326801638468
5.3154691134752	0.96327783307714
5.3088800779175	0.96328764218042
5.3023073576229	0.96329744346929
5.2957508920685	0.96330723672162
5.2892106210303	0.96331702171844
5.2826864845815	0.96332679824389
5.2761784230905	0.96333656608531
5.2696863772192	0.96334632503318
5.2632102879213	0.96335607488118
5.2567500964405	0.96336581542620
5.2503057443082	0.96337554646834
5.2438771733427	0.96338526781093
5.2374643256464	0.96339497926054
5.2310671436050	0.96340468062700
5.2246855698850	0.96341437172340
5.2183195474326	0.96342405236611
5.2119690194715	0.96343372237481
5.2056339295016	0.96344338157244
5.1993142212973	0.96345302978530
5.1930098389052	0.96346266684297
5.1867207266436	0.96347229257839
5.1804468290997	0.96348190682784
5.1741880911288	0.96349150943095
5.1679444578521	0.96350110023071
5.1617158746556	0.96351067907348
5.1555022871883	0.96352024580901
5.1493036413604	0.96352980029042
5.1431198833419	0.96353934237425
5.1369509595613	0.96354887192042
5.1307968167037	0.96355838879228
5.1246574017094	0.96356789285659
5.1185326617722	0.96357738398353
5.1124225443383	0.96358686204673
5.1063269971044	0.96359632692324
5.1002459680163	0.96360577849355
5.0941794052676	0.96361521664162
5.0881272572980	0.96362464125484
5.0820894727920	0.96363405222408
5.0760660006773	0.96364344944365
5.0700567901235	0.96365283281135
5.0640617905405	0.96366220222844
5.0580809515775	0.96367155759965
5.0521142231210	0.96368089883320
5.0461615552937	0.96369022584077
5.0402228984533	0.96369953853755
5.0342982031906	0.96370883684219
5.0283874203287	0.96371812067683
5.0224905009214	0.96372738996713
5.0166073962517	0.96373664464219
5.0107380578305	0.96374588463463
5.0048824373957	0.96375510988056
4.9990404869101	0.96376432031957
4.9932121585610	0.96377351589476
4.9873974047579	0.96378269655269
4.9815961781323	0.96379186224343
4.9758084315353	0.96380101292054
4.9700341180371	0.96381014854106
4.9642731909256	0.96381926906551
4.9585256037049	0.96382837445791
4.9527913100942	0.96383746468574
4.9470702640264	0.96384653971996
4.9413624196473	0.96385559953503
4.9356677313138	0.96386464410886
4.9299861535932	0.96387367342281
4.9243176412615	0.96388268746175
4.9186621493027	0.96389168621396
4.9130196329072	0.96390066967120
4.9073900474709	0.96390963782869
4.9017733485939	0.96391859068507
4.8961694920790	0.96392752824242
4.8905784339315	0.96393645050626
4.8850001303569	0.96394535748555
4.8794345377604	0.96395424919263
4.8738816127459	0.96396312564329
4.8683413121143	0.96397198685670
4.8628135928629	0.96398083285545
4.8572984121841	0.96398966366548
4.8517957274640	0.96399847931616
4.8463054962819	0.96400727984019
4.8408276764088	0.96401606527366
4.8353622258065	0.96402483565599
