#Parameters = {thARC=0.2; nARC=1; thsub=1; p=1; nSub=1.5}
#"Wavelength / um"	"T (110) [Real Part]"
#---------------------------------------
14.989622900000	0.95999999545453
14.937342202292	0.96002151181063
14.885424925521	0.96004265187555
14.833867293419	0.96006341890243
14.782665581854	0.96008381613249
14.731816117936	0.96010384679503
14.681315279138	0.96012351410736
14.631159492435	0.96014282127474
14.581345233463	0.96016177149037
14.531869025691	0.96018036793533
14.482727439614	0.96019861377851
14.433917091960	0.96021651217663
14.385434644914	0.96023406627414
14.337276805356	0.96025127920319
14.289440324118	0.96026815408363
14.241921995249	0.96028469402292
14.194718655303	0.96030090211611
14.147827182633	0.96031678144582
14.101244496707	0.96033233508217
14.054967557431	0.96034756608277
14.008993364486	0.96036247749267
13.963318956684	0.96037707234433
13.917941411328	0.96039135365758
13.872857843591	0.96040532443958
13.828065405904	0.96041898768483
13.783561287356	0.96043234637507
13.739342713107	0.96044540347929
13.695406943810	0.96045816195370
13.651751275046	0.96047062474168
13.608373036768	0.96048279477376
13.565269592760	0.96049467496761
13.522438340099	0.96050626822796
13.479876708633	0.96051757744664
13.437582160466	0.96052860550248
13.395552189455	0.96053935526134
13.353784320713	0.96054982957608
13.312276110124	0.96056003128650
13.271025143869	0.96056996321932
13.230029037952	0.96057962818821
13.189285437747	0.96058902899370
13.148792017544	0.96059816842318
13.108546480105	0.96060704925092
13.068546556234	0.96061567423796
13.028790004346	0.96062404613218
12.989274610052	0.96063216766822
12.949998185745	0.96064004156750
12.910958570198	0.96064767053817
12.872153628167	0.96065505727509
12.833581250000	0.96066220445986
12.795239351259	0.96066911476073
12.757125872340	0.96067579083267
12.719238778108	0.96068223531727
12.681576057530	0.96068845084277
12.644135723323	0.96069444002405
12.606915811606	0.96070020546259
12.569914381551	0.96070574974648
12.533129515050	0.96071107545040
12.496559316382	0.96071618513559
12.460201911887	0.96072108134987
12.424055449648	0.96072576662761
12.388118099174	0.96073024348972
12.352388051092	0.96073451444364
12.316863516845	0.96073858198335
12.281542728390	0.96074244858932
12.246423937908	0.96074611672855
12.211505417515	0.96074958885453
12.176785458976	0.96075286740725
12.142262373431	0.96075595481318
12.107934491115	0.96075885348527
12.073800161095	0.96076156582295
12.039857751004	0.96076409421212
12.006105646776	0.96076644102516
11.972542252396	0.96076860862089
11.939165989646	0.96077059934461
11.905975297855	0.96077241552806
11.872968633663	0.96077405948947
11.840144470774	0.96077553353349
11.807501299724	0.96077683995125
11.775037627651	0.96077798102031
11.742751978065	0.96077895900471
11.710642890625	0.96077977615494
11.678708920919	0.96078043470793
11.646948640249	0.96078093688709
11.615360635413	0.96078128490227
11.583943508501	0.96078148094981
11.552695876686	0.96078152721251
11.521616372022	0.96078142585962
11.490703641242	0.96078117904689
11.459956345566	0.96078078891654
11.429373160503	0.96078025759730
11.398952775665	0.96077958720435
11.368693894577	0.96077877983941
11.338595234493	0.96077783759067
11.308655526217	0.96077676253288
11.278873513920	0.96077555672726
11.249247954972	0.96077422222160
11.219777619760	0.96077276105021
11.190461291527	0.96077117523395
11.161297766195	0.96076946678025
11.132285852209	0.96076763768308
11.103424370370	0.96076568992303
11.074712153676	0.96076362546725
11.046148047163	0.96076144626950
11.017730907755	0.96075915427016
10.989459604106	0.96075675139623
10.961333016453	0.96075423956137
10.933350036470	0.96075162066587
10.905509567115	0.96074889659669
10.877810522496	0.96074606922750
10.850251827723	0.96074314041863
10.822832418773	0.96074011201714
10.795551242348	0.96073698585684
10.768407255747	0.96073376375825
10.741399426729	0.96073044752867
10.714526733381	0.96072703896217
10.687788163993	0.96072353983964
10.661182716927	0.96071995192875
10.634709400497	0.96071627698402
10.608367232838	0.96071251674682
10.582155241793	0.96070867294541
10.556072464789	0.96070474729489
10.530117948718	0.96070074149733
10.504290749825	0.96069665724169
10.478589933590	0.96069249620390
10.453014574616	0.96068826004685
10.427563756522	0.96068395042043
10.402236571825	0.96067956896155
10.377032121841	0.96067511729416
10.351949516575	0.96067059702926
10.326987874612	0.96066600976495
10.302146323024	0.96066135708643
10.277423997257	0.96065664056603
10.252820041040	0.96065186176325
10.228333606278	0.96064702222474
10.203963852961	0.96064212348439
10.179709949066	0.96063716706330
10.155571070461	0.96063215446985
10.131546400811	0.96062708719968
10.107635131490	0.96062196673574
10.083836461487	0.96061679454834
10.060149597315	0.96061157209514
10.036573752929	0.96060630082118
10.013108149633	0.96060098215894
9.9897520159947	0.96059561752834
9.9665045877660	0.96059020833677
9.9433651077944	0.96058475597913
9.9203328259431	0.96057926183785
9.8974069990096	0.96057372728294
9.8745868906456	0.96056815367199
9.8518717712783	0.96056254235020
9.8292609180328	0.96055689465046
9.8067536146549	0.96055121189333
9.7843491514360	0.96054549538706
9.7620468251384	0.96053974642769
9.7398459389214	0.96053396629902
9.7177458022690	0.96052815627266
9.6957457309185	0.96052231760807
9.6738450467893	0.96051645155259
9.6520430779137	0.96051055934146
9.6303391583681	0.96050464219787
9.6087326282051	0.96049870133300
9.5872228333866	0.96049273794601
9.5658091257179	0.96048675322415
9.5444908627826	0.96048074834270
9.5232674078780	0.96047472446509
9.5021381299525	0.96046868274289
9.4811024035421	0.96046262431586
9.4601596087094	0.96045655031197
9.4393091309824	0.96045046184745
9.4185503612944	0.96044436002683
9.3978826959248	0.96043824594296
9.3773055364404	0.96043212067707
9.3568182896380	0.96042598529879
9.3364203674868	0.96041984086616
9.3161111870727	0.96041368842575
9.2958901705426	0.96040752901260
9.2757567450495	0.96040136365034
9.2557103426984	0.96039519335115
9.2357504004929	0.96038901911589
9.2158763602828	0.96038284193404
9.1960876687117	0.96037666278383
9.1763837771656	0.96037048263221
9.1567641417227	0.96036430243493
9.1372282231027	0.96035812313656
9.1177754866180	0.96035194567053
9.0984054021244	0.96034577095920
9.0791174439733	0.96033959991386
9.0599110909640	0.96033343343478
9.0407858262967	0.96032727241127
9.0217411375263	0.96032111772172
9.0027765165165	0.96031497023360
8.9838914593947	0.96030883080356
8.9650854665072	0.96030270027744
8.9463580423754	0.96029657949030
8.9277086956522	0.96029046926649
8.9091369390788	0.96028437041968
8.8906422894425	0.96027828375290
8.8722242675348	0.96027221005859
8.8538823981099	0.96026615011863
8.8356162098438	0.96026010470439
8.8174252352941	0.96025407457680
8.7993090108600	0.96024806048633
8.7812670767428	0.96024206317310
8.7632989769073	0.96023608336688
8.7454042590432	0.96023012178716
8.7275824745269	0.96022417914319
8.7098331783847	0.96021825613399
8.6921559292549	0.96021235344846
8.6745502893519	0.96020647176536
8.6570158244297	0.96020061175339
8.6395521037464	0.96019477407123
8.6221587000288	0.96018895936759
8.6048351894374	0.96018316828124
8.5875811515325	0.96017740144106
8.5703961692396	0.96017165946610
8.5532798288160	0.96016594296560
8.5362317198178	0.96016025253907
8.5192514350668	0.96015458877632
8.5023385706183	0.96014895225747
8.4854927257288	0.96014334355308
8.4687135028249	0.96013776322410
8.4520005074711	0.96013221182200
8.4353533483399	0.96012668988877
8.4187716371806	0.96012119795696
8.4022549887892	0.96011573654977
8.3858030209790	0.96011030618106
8.3694153545505	0.96010490735541
8.3530916132627	0.96009954056818
8.3368314238042	0.96009420630552
8.3206344157646	0.96008890504448
8.3045002216066	0.96008363725298
8.2884284766381	0.96007840338993
8.2724188189845	0.96007320390523
8.2564708895621	0.96006803923984
8.2405843320506	0.96006290982584
8.2247587928669	0.96005781608644
8.2089939211391	0.96005275843605
8.1932893686800	0.96004773728036
8.1776447899618	0.96004275301632
8.1620598420909	0.96003780603226
8.1465341847826	0.96003289670789
8.1310674803363	0.96002802541437
8.1156593936113	0.96002319251435
8.1003095920022	0.96001839836204
8.0850177454153	0.96001364330322
8.0697835262450	0.96000892767534
8.0546066093498	0.96000425180752
8.0394866720300	0.95999961602065
8.0244233940043	0.95999502062738
8.0094164573871	0.95999046593222
7.9944655466667	0.95998595223159
7.9795703486825	0.95998147981381
7.9647305526036	0.95997704895923
7.9499458499072	0.95997265994023
7.9352159343568	0.95996831302129
7.9205405019815	0.95996400845901
7.9059192510549	0.95995974650221
7.8913518820742	0.95995552739195
7.8768380977404	0.95995135136156
7.8623776029373	0.95994721863676
7.8479701047120	0.95994312943562
7.8336153122550	0.95993908396870
7.8193129368805	0.95993508243901
7.8050626920073	0.95993112504215
7.7908642931393	0.95992721196630
7.7767174578470	0.95992334339229
7.7626219057483	0.95991951949365
7.7485773584906	0.95991574043667
7.7345835397317	0.95991200638044
7.7206401751223	0.95990831747690
7.7067469922879	0.95990467387091
7.6929037208109	0.95990107570025
7.6791100922131	0.95989752309575
7.6653658399386	0.95989401618127
7.6516706993364	0.95989055507379
7.6380244076433	0.95988713988347
7.6244267039674	0.95988377071364
7.6108773292714	0.95988044766094
7.5973760263558	0.95987717081528
7.5839225398432	0.95987394025998
7.5705166161616	0.95987075607176
7.5571580035291	0.95986761832079
7.5438464519376	0.95986452707079
7.5305817131374	0.95986148237904
7.5173635406219	0.95985848429645
7.5041916896120	0.95985553286759
7.4910659170415	0.95985262813078
7.4779859815415	0.95984977011810
7.4649516434263	0.95984695885546
7.4519626646781	0.95984419436267
7.4390188089330	0.95984147665345
7.4261198414664	0.95983880573551
7.4132655291790	0.95983618161062
7.4004556405826	0.95983360427461
7.3876899457861	0.95983107371745
7.3749682164822	0.95982858992331
7.3622902259332	0.95982615287060
7.3496557489581	0.95982376253203
7.3370645619187	0.95982141887463
7.3245164427071	0.95981912185987
7.3120111707317	0.95981687144362
7.2995485269053	0.95981466757628
7.2871282936315	0.95981251020279
7.2747502547925	0.95981039926269
7.2624141957364	0.95980833469018
7.2501199032648	0.95980631641417
7.2378671656205	0.95980434435830
7.2256557724753	0.95980241844104
7.2134855149182	0.95980053857572
7.2013561854432	0.95979870467057
7.1892675779376	0.95979691662878
7.1772194876706	0.95979517434856
7.1652117112811	0.95979347772317
7.1532440467669	0.95979182664099
7.1413162934731	0.95979022098559
7.1294282520809	0.95978866063571
7.1175797245964	0.95978714546538
7.1057705143399	0.95978567534397
7.0940004259347	0.95978425013618
7.0822692652965	0.95978286970215
7.0705768396226	0.95978153389750
7.0589229573817	0.95978024257334
7.0473074283028	0.95977899557638
7.0357300633654	0.95977779274894
7.0241906747891	0.95977663392901
7.0126890760234	0.95977551895032
7.0012250817375	0.95977444764236
6.9897985078107	0.95977341983045
6.9784091713222	0.95977243533577
6.9670568905415	0.95977149397544
6.9557414849188	0.95977059556255
6.9444627750753	0.95976973990622
6.9332205827937	0.95976892681164
6.9220147310090	0.95976815608011
6.9108450437990	0.95976742750914
6.8997113463751	0.95976674089244
6.8886134650735	0.95976609601999
6.8775512273457	0.95976549267810
6.8665244617499	0.95976493064947
6.8555329979419	0.95976440971320
6.8445766666667	0.95976392964487
6.8336552997493	0.95976349021659
6.8227687300865	0.95976309119703
6.8119167916383	0.95976273235148
6.8010993194192	0.95976241344190
6.7903161494904	0.95976213422698
6.7795671189507	0.95976189446217
6.7688520659291	0.95976169389972
6.7581708295762	0.95976153228877
6.7475232500563	0.95976140937536
6.7369091685393	0.95976132490250
6.7263284271932	0.95976127861018
6.7157808691756	0.95976127023549
6.7052663386267	0.95976129951261
6.6947846806610	0.95976136617286
6.6843357413601	0.95976146994478
6.6739193677649	0.95976161055416
6.6635354078684	0.95976178772407
6.6531837106081	0.95976200117495
6.6428641258586	0.95976225062463
6.6325765044248	0.95976253578835
6.6223206980340	0.95976285637889
6.6120965593295	0.95976321210652
6.6019039418630	0.95976360267911
6.5917427000879	0.95976402780216
6.5816126893524	0.95976448717885
6.5715137658922	0.95976498051007
6.5614457868243	0.95976550749450
6.5514086101399	0.95976606782861
6.5414020946978	0.95976666120677
6.5314261002179	0.95976728732121
6.5214804872743	0.95976794586215
6.5115651172893	0.95976863651780
6.5016798525266	0.95976935897442
6.4918245560849	0.95977011291636
6.4819990918919	0.95977089802611
6.4722033246978	0.95977171398434
6.4624371200690	0.95977256046995
6.4527003443823	0.95977343716011
6.4429928648184	0.95977434373032
6.4333145493562	0.95977527985443
6.4236652667667	0.95977624520471
6.4140448866068	0.95977723945188
6.4044532792138	0.95977826226515
6.3948903156997	0.95977931331228
6.3853558679446	0.95978039225961
6.3758498085921	0.95978149877213
6.3663720110427	0.95978263251347
6.3569223494487	0.95978379314600
6.3475006987084	0.95978498033085
6.3381069344609	0.95978619372795
6.3287409330800	0.95978743299608
6.3194025716695	0.95978869779292
6.3100917280572	0.95978998777505
6.3008082807902	0.95979130259807
6.2915521091291	0.95979264191657
6.2823230930427	0.95979400538422
6.2731211132036	0.95979539265378
6.2639460509820	0.95979680337716
6.2547977884415	0.95979823720546
6.2456762083333	0.95979969378902
6.2365811940919	0.95980117277742
6.2275126298297	0.95980267381960
6.2184704003319	0.95980419656380
6.2094543910522	0.95980574065771
6.2004644881075	0.95980730574841
6.1915005782734	0.95980889148249
6.1825625489792	0.95981049750603
6.1736502883031	0.95981212346469
6.1647636849681	0.95981376900372
6.1559026283368	0.95981543376801
6.1470670084068	0.95981711740212
6.1382567158067	0.95981881955034
6.1294716417910	0.95982053985671
6.1207116782360	0.95982227796506
6.1119767176351	0.95982403351908
6.1032666530945	0.95982580616230
6.0945813783289	0.95982759553820
6.0859207876573	0.95982940129018
6.0772847759984	0.95983122306165
6.0686732388664	0.95983306049604
6.0600860723671	0.95983491323685
6.0515231731934	0.95983678092769
6.0429844386212	0.95983866321229
6.0344697665056	0.95984055973458
6.0259790552764	0.95984247013871
6.0175122039342	0.95984439406906
6.0090691120465	0.95984633117033
6.0006496797438	0.95984828108752
5.9922538077154	0.95985024346601
5.9838813972056	0.95985221795158
5.9755323500100	0.95985420419042
5.9672065684713	0.95985620182923
5.9589039554760	0.95985821051520
5.9506244144502	0.95986022989604
5.9423678493558	0.95986225962008
5.9341341646873	0.95986429933623
5.9259232654675	0.95986634869406
5.9177350572444	0.95986840734381
5.9095694460871	0.95987047493646
5.9014263385827	0.95987255112372
5.8933056418321	0.95987463555808
5.8852072634472	0.95987672789287
5.8771311115468	0.95987882778225
5.8690770947533	0.95988093488127
5.8610451221896	0.95988304884591
5.8530351034752	0.95988516933309
5.8450469487229	0.95988729600071
5.8370805685358	0.95988942850768
5.8291358740035	0.95989156651398
5.8212127766990	0.95989370968064
5.8133111886756	0.95989585766984
5.8054310224632	0.95989801014485
5.7975721910656	0.95990016677016
5.7897346079567	0.95990232721144
5.7819181870781	0.95990449113561
5.7741228428351	0.95990665821084
5.7663484900942	0.95990882810661
5.7585950441798	0.95991100049372
5.7508624208709	0.95991317504433
5.7431505363985	0.95991535143198
5.7354593074421	0.95991752933164
5.7277886511272	0.95991970841970
5.7201384850219	0.95992188837404
5.7125087271341	0.95992406887404
5.7048992959087	0.95992624960062
5.6973101102242	0.95992843023624
5.6897410893908	0.95993061046495
5.6821921531463	0.95993278997244
5.6746632216544	0.95993496844600
5.6671542155009	0.95993714557462
5.6596650556919	0.95993932104899
5.6521956636501	0.95994149456150
5.6447459612126	0.95994366580629
5.6373158706281	0.95994583447931
5.6299053145540	0.95994800027827
5.6225142160540	0.95995016290274
5.6151424985952	0.95995232205412
5.6077900860456	0.95995447743570
5.6004569026714	0.95995662875267
5.5931428731343	0.95995877571215
5.5858479224893	0.95996091802322
5.5785719761816	0.95996305539693
5.5713149600446	0.95996518754632
5.5640768002970	0.95996731418647
5.5568574235403	0.95996943503451
5.5496567567568	0.95997154980963
5.5424747273063	0.95997365823313
5.5353112629247	0.95997576002842
5.5281662917204	0.95997785492103
5.5210397421731	0.95997994263869
5.5139315431304	0.95998202291130
5.5068416238060	0.95998409547094
5.4997699137773	0.95998616005196
5.4927163429828	0.95998821639092
5.4856808417200	0.95999026422669
5.4786633406433	0.95999230330039
5.4716637707611	0.95999433335548
5.4646820634342	0.95999635413774
5.4577181503732	0.95999836539529
5.4507719636364	0.96000036687864
5.4438434356274	0.96000235834068
5.4369324990932	0.96000433953672
5.4300390871219	0.96000631022447
5.4231631331404	0.96000827016413
5.4163045709124	0.96001021911832
5.4094633345363	0.96001215685217
5.4026393584430	0.96001408313330
5.3958325773938	0.96001599773186
5.3890429264785	0.96001790042052
5.3822703411131	0.96001979097451
5.3755147570378	0.96002166917164
5.3687761103152	0.96002353479228
5.3620543373278	0.96002538761943
5.3553493747767	0.96002722743868
5.3486611596789	0.96002905403827
5.3419896293656	0.96003086720910
5.3353347214807	0.96003266674470
5.3286963739780	0.96003445244131
5.3220745251198	0.96003622409785
5.3154691134752	0.96003798151594
5.3088800779175	0.96003972449993
5.3023073576229	0.96004145285692
5.2957508920685	0.96004316639673
5.2892106210303	0.96004486493195
5.2826864845815	0.96004654827796
5.2761784230905	0.96004821625291
5.2696863772192	0.96004986867775
5.2632102879213	0.96005150537626
5.2567500964405	0.96005312617502
5.2503057443082	0.96005473090346
5.2438771733427	0.96005631939384
5.2374643256464	0.96005789148130
5.2310671436050	0.96005944700382
5.2246855698850	0.96006098580229
5.2183195474326	0.96006250772045
5.2119690194715	0.96006401260498
5.2056339295016	0.96006550030543
5.1993142212973	0.96006697067429
5.1930098389052	0.96006842356697
5.1867207266436	0.96006985884180
5.1804468290997	0.96007127636007
5.1741880911288	0.96007267598602
5.1679444578521	0.96007405758684
5.1617158746556	0.96007542103270
5.1555022871883	0.96007676619671
5.1493036413604	0.96007809295501
5.1431198833419	0.96007940118669
5.1369509595613	0.96008069077384
5.1307968167037	0.96008196160157
5.1246574017094	0.96008321355796
5.1185326617722	0.96008444653415
5.1124225443383	0.96008566042424
5.1063269971044	0.96008685512539
5.1002459680163	0.96008803053779
5.0941794052676	0.96008918656463
5.0881272572980	0.96009032311215
5.0820894727920	0.96009144008965
5.0760660006773	0.96009253740943
5.0700567901235	0.96009361498688
5.0640617905405	0.96009467274041
5.0580809515775	0.96009571059149
5.0521142231210	0.96009672846463
5.0461615552937	0.96009772628743
5.0402228984533	0.96009870399052
5.0342982031906	0.96009966150759
5.0283874203287	0.96010059877540
5.0224905009214	0.96010151573378
5.0166073962517	0.96010241232560
5.0107380578305	0.96010328849682
5.0048824373957	0.96010414419643
4.9990404869101	0.96010497937652
4.9932121585610	0.96010579399221
4.9873974047579	0.96010658800171
4.9815961781323	0.96010736136627
4.9758084315353	0.96010811405021
4.9700341180371	0.96010884602091
4.9642731909256	0.96010955724880
4.9585256037049	0.96011024770738
4.9527913100942	0.96011091737317
4.9470702640264	0.96011156622576
4.9413624196473	0.96011219424781
4.9356677313138	0.96011280142497
4.9299861535932	0.96011338774598
4.9243176412615	0.96011395320258
4.9186621493027	0.96011449778956
4.9130196329072	0.96011502150473
4.9073900474709	0.96011552434894
4.9017733485939	0.96011600632603
4.8961694920790	0.96011646744287
4.8905784339315	0.96011690770934
4.8850001303569	0.96011732713830
4.8794345377604	0.96011772574564
4.8738816127459	0.96011810355019
4.8683413121143	0.96011846057382
4.8628135928629	0.96011879684132
4.8572984121841	0.96011911238049
4.8517957274640	0.96011940722207
4.8463054962819	0.96011968139976
4.8408276764088	0.96011993495019
4.8353622258065	0.96012016791294
