#Parameters = {thARC=0; nARC=1.75; thsub=1; p=1; nSub=1.5}
#"Wavelength / um"	"T (127) [Real Part]"
#---------------------------------------
14.989622900000	0.96000002517544
14.937342202292	0.96001203438409
14.885424925521	0.96002382730713
14.833867293419	0.96003540590680
14.782665581854	0.96004677213683
14.731816117936	0.96005792794240
14.681315279138	0.96006887526019
14.631159492435	0.96007961601829
14.581345233463	0.96009015213625
14.531869025691	0.96010048552505
14.482727439614	0.96011061808709
14.433917091960	0.96012055171620
14.385434644914	0.96013028829759
14.337276805356	0.96013982970788
14.289440324118	0.96014917781510
14.241921995249	0.96015833447863
14.194718655303	0.96016730154926
14.147827182633	0.96017608086912
14.101244496707	0.96018467427174
14.054967557431	0.96019308358196
14.008993364486	0.96020131061602
13.963318956684	0.96020935718149
13.917941411328	0.96021722507727
13.872857843591	0.96022491609362
13.828065405904	0.96023243201211
13.783561287356	0.96023977460565
13.739342713107	0.96024694563849
13.695406943810	0.96025394686619
13.651751275046	0.96026078003561
13.608373036768	0.96026744688496
13.565269592760	0.96027394914375
13.522438340099	0.96028028853278
13.479876708633	0.96028646676420
13.437582160466	0.96029248554144
13.395552189455	0.96029834655924
13.353784320713	0.96030405150365
13.312276110124	0.96030960205203
13.271025143869	0.96031499987302
13.230029037952	0.96032024662659
13.189285437747	0.96032534396401
13.148792017544	0.96033029352785
13.108546480105	0.96033509695197
13.068546556234	0.96033975586156
13.028790004346	0.96034427187310
12.989274610052	0.96034864659440
12.949998185745	0.96035288162455
12.910958570198	0.96035697855397
12.872153628167	0.96036093896440
12.833581250000	0.96036476442889
12.795239351259	0.96036845651180
12.757125872340	0.96037201676884
12.719238778108	0.96037544674701
12.681576057530	0.96037874798467
12.644135723323	0.96038192201151
12.606915811606	0.96038497034854
12.569914381551	0.96038789450814
12.533129515050	0.96039069599401
12.496559316382	0.96039337630123
12.460201911887	0.96039593691621
12.424055449648	0.96039837931675
12.388118099174	0.96040070497200
12.352388051092	0.96040291534250
12.316863516845	0.96040501188015
12.281542728390	0.96040699602825
12.246423937908	0.96040886922151
12.211505417515	0.96041063288603
12.176785458976	0.96041228843930
12.142262373431	0.96041383729025
12.107934491115	0.96041528083923
12.073800161095	0.96041662047801
12.039857751004	0.96041785758982
12.006105646776	0.96041899354933
11.972542252396	0.96042002972266
11.939165989646	0.96042096746740
11.905975297855	0.96042180813263
11.872968633663	0.96042255305890
11.840144470774	0.96042320357825
11.807501299724	0.96042376101424
11.775037627651	0.96042422668194
11.742751978065	0.96042460188794
11.710642890625	0.96042488793037
11.678708920919	0.96042508609891
11.646948640249	0.96042519767479
11.615360635413	0.96042522393080
11.583943508501	0.96042516613134
11.552695876686	0.96042502553238
11.521616372022	0.96042480338149
11.490703641242	0.96042450091786
11.459956345566	0.96042411937233
11.429373160503	0.96042365996734
11.398952775665	0.96042312391703
11.368693894577	0.96042251242716
11.338595234493	0.96042182669520
11.308655526217	0.96042106791031
11.278873513920	0.96042023725335
11.249247954972	0.96041933589690
11.219777619760	0.96041836500527
11.190461291527	0.96041732573452
11.161297766195	0.96041621923250
11.132285852209	0.96041504663879
11.103424370370	0.96041380908481
11.074712153676	0.96041250769374
11.046148047163	0.96041114358062
11.017730907755	0.96040971785232
10.989459604106	0.96040823160755
10.961333016453	0.96040668593689
10.933350036470	0.96040508192283
10.905509567115	0.96040342063972
10.877810522496	0.96040170315387
10.850251827723	0.96039993052350
10.822832418773	0.96039810379878
10.795551242348	0.96039622402185
10.768407255747	0.96039429222685
10.741399426729	0.96039230943990
10.714526733381	0.96039027667915
10.687788163993	0.96038819495478
10.661182716927	0.96038606526904
10.634709400497	0.96038388861624
10.608367232838	0.96038166598277
10.582155241793	0.96037939834715
10.556072464789	0.96037708668003
10.530117948718	0.96037473194417
10.504290749825	0.96037233509454
10.478589933590	0.96036989707826
10.453014574616	0.96036741883468
10.427563756522	0.96036490129534
10.402236571825	0.96036234538404
10.377032121841	0.96035975201686
10.351949516575	0.96035712210212
10.326987874612	0.96035445654046
10.302146323024	0.96035175622486
10.277423997257	0.96034902204060
10.252820041040	0.96034625486536
10.228333606278	0.96034345556919
10.203963852961	0.96034062501451
10.179709949066	0.96033776405622
10.155571070461	0.96033487354162
10.131546400811	0.96033195431050
10.107635131490	0.96032900719512
10.083836461487	0.96032603302025
10.060149597315	0.96032303260321
10.036573752929	0.96032000675385
10.013108149633	0.96031695627459
9.9897520159947	0.96031388196046
9.9665045877660	0.96031078459910
9.9433651077944	0.96030766497079
9.9203328259431	0.96030452384847
9.8974069990096	0.96030136199777
9.8745868906456	0.96029818017702
9.8518717712783	0.96029497913728
9.8292609180328	0.96029175962238
9.8067536146549	0.96028852236888
9.7843491514360	0.96028526810620
9.7620468251384	0.96028199755653
9.7398459389214	0.96027871143494
9.7177458022690	0.96027541044934
9.6957457309185	0.96027209530055
9.6738450467893	0.96026876668232
9.6520430779137	0.96026542528130
9.6303391583681	0.96026207177714
9.6087326282051	0.96025870684247
9.5872228333866	0.96025533114292
9.5658091257179	0.96025194533717
9.5444908627826	0.96024855007695
9.5232674078780	0.96024514600708
9.5021381299525	0.96024173376550
9.4811024035421	0.96023831398328
9.4601596087094	0.96023488728464
9.4393091309824	0.96023145428699
9.4185503612944	0.96022801560096
9.3978826959248	0.96022457183041
9.3773055364404	0.96022112357246
9.3568182896380	0.96021767141751
9.3364203674868	0.96021421594928
9.3161111870727	0.96021075774482
9.2958901705426	0.96020729737456
9.2757567450495	0.96020383540229
9.2557103426984	0.96020037238525
9.2357504004929	0.96019690887408
9.2158763602828	0.96019344541293
9.1960876687117	0.96018998253941
9.1763837771656	0.96018652078467
9.1567641417227	0.96018306067339
9.1372282231027	0.96017960272383
9.1177754866180	0.96017614744785
9.0984054021244	0.96017269535093
9.0791174439733	0.96016924693221
9.0599110909640	0.96016580268451
9.0407858262967	0.96016236309433
9.0217411375263	0.96015892864194
9.0027765165165	0.96015549980135
8.9838914593947	0.96015207704035
8.9650854665072	0.96014866082057
8.9463580423754	0.96014525159744
8.9277086956522	0.96014184982031
8.9091369390788	0.96013845593238
8.8906422894425	0.96013507037080
8.8722242675348	0.96013169356667
8.8538823981099	0.96012832594505
8.8356162098438	0.96012496792503
8.8174252352941	0.96012161991972
8.7993090108600	0.96011828233630
8.7812670767428	0.96011495557602
8.7632989769073	0.96011164003429
8.7454042590432	0.96010833610062
8.7275824745269	0.96010504415872
8.7098331783847	0.96010176458650
8.6921559292549	0.96009849775609
8.6745502893519	0.96009524403390
8.6570158244297	0.96009200378060
8.6395521037464	0.96008877735120
8.6221587000288	0.96008556509503
8.6048351894374	0.96008236735582
8.5875811515325	0.96007918447168
8.5703961692396	0.96007601677516
8.5532798288160	0.96007286459327
8.5362317198178	0.96006972824750
8.5192514350668	0.96006660805385
8.5023385706183	0.96006350432288
8.4854927257288	0.96006041735973
8.4687135028249	0.96005734746411
8.4520005074711	0.96005429493040
8.4353533483399	0.96005126004762
8.4187716371806	0.96004824309947
8.4022549887892	0.96004524436440
8.3858030209790	0.96004226411558
8.3694153545505	0.96003930262097
8.3530916132627	0.96003636014333
8.3368314238042	0.96003343694026
8.3206344157646	0.96003053326422
8.3045002216066	0.96002764936259
8.2884284766381	0.96002478547763
8.2724188189845	0.96002194184658
8.2564708895621	0.96001911870166
8.2405843320506	0.96001631627011
8.2247587928669	0.96001353477419
8.2089939211391	0.96001077443125
8.1932893686800	0.96000803545373
8.1776447899618	0.96000531804920
8.1620598420909	0.96000262242040
8.1465341847826	0.95999994876526
8.1310674803363	0.95999729727691
8.1156593936113	0.95999466814375
8.1003095920022	0.95999206154945
8.0850177454153	0.95998947767299
8.0697835262450	0.95998691668868
8.0546066093498	0.95998437876621
8.0394866720300	0.95998186407066
8.0244233940043	0.95997937276255
8.0094164573871	0.95997690499784
7.9944655466667	0.95997446092799
7.9795703486825	0.95997204069997
7.9647305526036	0.95996964445629
7.9499458499072	0.95996727233507
7.9352159343568	0.95996492446999
7.9205405019815	0.95996260099040
7.9059192510549	0.95996030202132
7.8913518820742	0.95995802768343
7.8768380977404	0.95995577809318
7.8623776029373	0.95995355336275
7.8479701047120	0.95995135360011
7.8336153122550	0.95994917890906
7.8193129368805	0.95994702938922
7.8050626920073	0.95994490513613
7.7908642931393	0.95994280624119
7.7767174578470	0.95994073279177
7.7626219057483	0.95993868487118
7.7485773584906	0.95993666255875
7.7345835397317	0.95993466592982
7.7206401751223	0.95993269505580
7.7067469922879	0.95993075000417
7.6929037208109	0.95992883083855
7.6791100922131	0.95992693761869
7.6653658399386	0.95992507040051
7.6516706993364	0.95992322923616
7.6380244076433	0.95992141417399
7.6244267039674	0.95991962525866
7.6108773292714	0.95991786253110
7.5973760263558	0.95991612602856
7.5839225398432	0.95991441578467
7.5705166161616	0.95991273182943
7.5571580035291	0.95991107418926
7.5438464519376	0.95990944288703
7.5305817131374	0.95990783794207
7.5173635406219	0.95990625937023
7.5041916896120	0.95990470718390
7.4910659170415	0.95990318139203
7.4779859815415	0.95990168200015
7.4649516434263	0.95990020901044
7.4519626646781	0.95989876242171
7.4390188089330	0.95989734222949
7.4261198414664	0.95989594842598
7.4132655291790	0.95989458100015
7.4004556405826	0.95989323993774
7.3876899457861	0.95989192522130
7.3749682164822	0.95989063683020
7.3622902259332	0.95988937474068
7.3496557489581	0.95988813892586
7.3370645619187	0.95988692935581
7.3245164427071	0.95988574599751
7.3120111707317	0.95988458881497
7.2995485269053	0.95988345776916
7.2871282936315	0.95988235281813
7.2747502547925	0.95988127391698
7.2624141957364	0.95988022101791
7.2501199032648	0.95987919407025
7.2378671656205	0.95987819302048
7.2256557724753	0.95987721781227
7.2134855149182	0.95987626838653
7.2013561854432	0.95987534468137
7.1892675779376	0.95987444663221
7.1772194876706	0.95987357417176
7.1652117112811	0.95987272723006
7.1532440467669	0.95987190573451
7.1413162934731	0.95987110960992
7.1294282520809	0.95987033877849
7.1175797245964	0.95986959315988
7.1057705143399	0.95986887267124
7.0940004259347	0.95986817722721
7.0822692652965	0.95986750673997
7.0705768396226	0.95986686111928
7.0589229573817	0.95986624027245
7.0473074283028	0.95986564410445
7.0357300633654	0.95986507251789
7.0241906747891	0.95986452541305
7.0126890760234	0.95986400268793
7.0012250817375	0.95986350423825
6.9897985078107	0.95986302995750
6.9784091713222	0.95986257973697
6.9670568905415	0.95986215346576
6.9557414849188	0.95986175103082
6.9444627750753	0.95986137231697
6.9332205827937	0.95986101720696
6.9220147310090	0.95986068558144
6.9108450437990	0.95986037731906
6.8997113463751	0.95986009229641
6.8886134650735	0.95985983038814
6.8775512273457	0.95985959146693
6.8665244617499	0.95985937540353
6.8555329979419	0.95985918206678
6.8445766666667	0.95985901132367
6.8336552997493	0.95985886303934
6.8227687300865	0.95985873707710
6.8119167916383	0.95985863329849
6.8010993194192	0.95985855156327
6.7903161494904	0.95985849172948
6.7795671189507	0.95985845365344
6.7688520659291	0.95985843718981
6.7581708295762	0.95985844219158
6.7475232500563	0.95985846851011
6.7369091685393	0.95985851599518
6.7263284271932	0.95985858449500
6.7157808691756	0.95985867385621
6.7052663386267	0.95985878392396
6.6947846806610	0.95985891454189
6.6843357413601	0.95985906555219
6.6739193677649	0.95985923679560
6.6635354078684	0.95985942811147
6.6531837106081	0.95985963933773
6.6428641258586	0.95985987031098
6.6325765044248	0.95986012086650
6.6223206980340	0.95986039083822
6.6120965593295	0.95986068005883
6.6019039418630	0.95986098835976
6.5917427000879	0.95986131557119
6.5816126893524	0.95986166152213
6.5715137658922	0.95986202604040
6.5614457868243	0.95986240895267
6.5514086101399	0.95986281008448
6.5414020946978	0.95986322926030
6.5314261002179	0.95986366630348
6.5214804872743	0.95986412103638
6.5115651172893	0.95986459328028
6.5016798525266	0.95986508285552
6.4918245560849	0.95986558958142
6.4819990918919	0.95986611327639
6.4722033246978	0.95986665375789
6.4624371200690	0.95986721084252
6.4527003443823	0.95986778434597
6.4429928648184	0.95986837408311
6.4333145493562	0.95986897986799
6.4236652667667	0.95986960151383
6.4140448866068	0.95987023883313
6.4044532792138	0.95987089163758
6.3948903156997	0.95987155973821
6.3853558679446	0.95987224294531
6.3758498085921	0.95987294106850
6.3663720110427	0.95987365391676
6.3569223494487	0.95987438129843
6.3475006987084	0.95987512302127
6.3381069344609	0.95987587889243
6.3287409330800	0.95987664871853
6.3194025716695	0.95987743230564
6.3100917280572	0.95987822945932
6.3008082807902	0.95987903998467
6.2915521091291	0.95987986368631
6.2823230930427	0.95988070036841
6.2731211132036	0.95988154983475
6.2639460509820	0.95988241188870
6.2547977884415	0.95988328633326
6.2456762083333	0.95988417297110
6.2365811940919	0.95988507160454
6.2275126298297	0.95988598203562
6.2184704003319	0.95988690406610
6.2094543910522	0.95988783749747
6.2004644881075	0.95988878213100
6.1915005782734	0.95988973776773
6.1825625489792	0.95989070420853
6.1736502883031	0.95989168125410
6.1647636849681	0.95989266870497
6.1559026283368	0.95989366636157
6.1470670084068	0.95989467402423
6.1382567158067	0.95989569149318
6.1294716417910	0.95989671856860
6.1207116782360	0.95989775505063
6.1119767176351	0.95989880073941
6.1032666530945	0.95989985543505
6.0945813783289	0.95990091893771
6.0859207876573	0.95990199104760
6.0772847759984	0.95990307156498
6.0686732388664	0.95990416029020
6.0600860723671	0.95990525702373
6.0515231731934	0.95990636156617
6.0429844386212	0.95990747371824
6.0344697665056	0.95990859328087
6.0259790552764	0.95990972005514
6.0175122039342	0.95991085384238
6.0090691120465	0.95991199444412
6.0006496797438	0.95991314166214
5.9922538077154	0.95991429529850
5.9838813972056	0.95991545515555
5.9755323500100	0.95991662103594
5.9672065684713	0.95991779274265
5.9589039554760	0.95991897007900
5.9506244144502	0.95992015284869
5.9423678493558	0.95992134085579
5.9341341646873	0.95992253390477
5.9259232654675	0.95992373180054
5.9177350572444	0.95992493434844
5.9095694460871	0.95992614135427
5.9014263385827	0.95992735262430
5.8933056418321	0.95992856796530
5.8852072634472	0.95992978718457
5.8771311115468	0.95993101008992
5.8690770947533	0.95993223648971
5.8610451221896	0.95993346619288
5.8530351034752	0.95993469900895
5.8450469487229	0.95993593474804
5.8370805685358	0.95993717322089
5.8291358740035	0.95993841423888
5.8212127766990	0.95993965761404
5.8133111886756	0.95994090315907
5.8054310224632	0.95994215068737
5.7975721910656	0.95994340001302
5.7897346079567	0.95994465095084
5.7819181870781	0.95994590331639
5.7741228428351	0.95994715692598
5.7663484900942	0.95994841159669
5.7585950441798	0.95994966714637
5.7508624208709	0.95995092339370
5.7431505363985	0.95995218015816
5.7354593074421	0.95995343726007
5.7277886511272	0.95995469452060
5.7201384850219	0.95995595176178
5.7125087271341	0.95995720880653
5.7048992959087	0.95995846547865
5.6973101102242	0.95995972160286
5.6897410893908	0.95996097700481
5.6821921531463	0.95996223151108
5.6746632216544	0.95996348494921
5.6671542155009	0.95996473714771
5.6596650556919	0.95996598793607
5.6521956636501	0.95996723714477
5.6447459612126	0.95996848460533
5.6373158706281	0.95996973015027
5.6299053145540	0.95997097361315
5.6225142160540	0.95997221482859
5.6151424985952	0.95997345363229
5.6077900860456	0.95997468986100
5.6004569026714	0.95997592335260
5.5931428731343	0.95997715394604
5.5858479224893	0.95997838148142
5.5785719761816	0.95997960579996
5.5713149600446	0.95998082674401
5.5640768002970	0.95998204415712
5.5568574235403	0.95998325788396
5.5496567567568	0.95998446777041
5.5424747273063	0.95998567366356
5.5353112629247	0.95998687541167
5.5281662917204	0.95998807286424
5.5210397421731	0.95998926587200
5.5139315431304	0.95999045428692
5.5068416238060	0.95999163796223
5.4997699137773	0.95999281675241
5.4927163429828	0.95999399051322
5.4856808417200	0.95999515910173
5.4786633406433	0.95999632237627
5.4716637707611	0.95999748019650
5.4646820634342	0.95999863242341
5.4577181503732	0.95999977891930
5.4507719636364	0.96000091954782
5.4438434356274	0.96000205417397
5.4369324990932	0.96000318266411
5.4300390871219	0.96000430488596
5.4231631331404	0.96000542070863
5.4163045709124	0.96000653000263
5.4094633345363	0.96000763263984
5.4026393584430	0.96000872849359
5.3958325773938	0.96000981743858
5.3890429264785	0.96001089935097
5.3822703411131	0.96001197410834
5.3755147570378	0.96001304158973
5.3687761103152	0.96001410167562
5.3620543373278	0.96001515424795
5.3553493747767	0.96001619919012
5.3486611596789	0.96001723638705
5.3419896293656	0.96001826572509
5.3353347214807	0.96001928709212
5.3286963739780	0.96002030037751
5.3220745251198	0.96002130547213
5.3154691134752	0.96002230226839
5.3088800779175	0.96002329066020
5.3023073576229	0.96002427054301
5.2957508920685	0.96002524181380
5.2892106210303	0.96002620437111
5.2826864845815	0.96002715811501
5.2761784230905	0.96002810294715
5.2696863772192	0.96002903877072
5.2632102879213	0.96002996549050
5.2567500964405	0.96003088301283
5.2503057443082	0.96003179124564
5.2438771733427	0.96003269009845
5.2374643256464	0.96003357948237
5.2310671436050	0.96003445931010
5.2246855698850	0.96003532949596
5.2183195474326	0.96003618995587
5.2119690194715	0.96003704060735
5.2056339295016	0.96003788136957
5.1993142212973	0.96003871216331
5.1930098389052	0.96003953291096
5.1867207266436	0.96004034353656
5.1804468290997	0.96004114396579
5.1741880911288	0.96004193412596
5.1679444578521	0.96004271394604
5.1617158746556	0.96004348335662
5.1555022871883	0.96004424228997
5.1493036413604	0.96004499068001
5.1431198833419	0.96004572846230
5.1369509595613	0.96004645557409
5.1307968167037	0.96004717195428
5.1246574017094	0.96004787754343
5.1185326617722	0.96004857228379
5.1124225443383	0.96004925611926
5.1063269971044	0.96004992899545
5.1002459680163	0.96005059085961
5.0941794052676	0.96005124166069
5.0881272572980	0.96005188134933
5.0820894727920	0.96005250987783
5.0760660006773	0.96005312720018
5.0700567901235	0.96005373327209
5.0640617905405	0.96005432805092
5.0580809515775	0.96005491149573
5.0521142231210	0.96005548356727
5.0461615552937	0.96005604422800
5.0402228984533	0.96005659344204
5.0342982031906	0.96005713117523
5.0283874203287	0.96005765739509
5.0224905009214	0.96005817207083
5.0166073962517	0.96005867517337
5.0107380578305	0.96005916667530
5.0048824373957	0.96005964655093
4.9990404869101	0.96006011477624
4.9932121585610	0.96006057132891
4.9873974047579	0.96006101618832
4.9815961781323	0.96006144933552
4.9758084315353	0.96006187075329
4.9700341180371	0.96006228042605
4.9642731909256	0.96006267833993
4.9585256037049	0.96006306448277
4.9527913100942	0.96006343884405
4.9470702640264	0.96006380141496
4.9413624196473	0.96006415218837
4.9356677313138	0.96006449115882
4.9299861535932	0.96006481832254
4.9243176412615	0.96006513367741
4.9186621493027	0.96006543722302
4.9130196329072	0.96006572896059
4.9073900474709	0.96006600889303
4.9017733485939	0.96006627702491
4.8961694920790	0.96006653336246
4.8905784339315	0.96006677791356
4.8850001303569	0.96006701068776
4.8794345377604	0.96006723169624
4.8738816127459	0.96006744095185
4.8683413121143	0.96006763846906
4.8628135928629	0.96006782426399
4.8572984121841	0.96006799835440
4.8517957274640	0.96006816075967
4.8463054962819	0.96006831150082
4.8408276764088	0.96006845060046
4.8353622258065	0.96006857808286
