#Parameters = {thARC=0.4; nARC=1.75; thsub=1; p=1; nSub=1.5}
#"Wavelength / um"	"T (129) [Real Part]"
#---------------------------------------
14.989622900000	0.95302025615648
14.937342202292	0.95304739144461
14.885424925521	0.95307318602464
14.833867293419	0.95309764898673
14.782665581854	0.95312078941312
14.731816117936	0.95314261637772
14.681315279138	0.95316313894562
14.631159492435	0.95318236617272
14.581345233463	0.95320030710525
14.531869025691	0.95321697077936
14.482727439614	0.95323236622069
14.433917091960	0.95324650244399
14.385434644914	0.95325938845262
14.337276805356	0.95327103323823
14.289440324118	0.95328144578027
14.241921995249	0.95329063504564
14.194718655303	0.95329860998825
14.147827182633	0.95330537954861
14.101244496707	0.95331095265349
14.054967557431	0.95331533821547
14.008993364486	0.95331854513255
13.963318956684	0.95332058228780
13.917941411328	0.95332145854894
13.872857843591	0.95332118276798
13.828065405904	0.95331976378083
13.783561287356	0.95331721040693
13.739342713107	0.95331353144887
13.695406943810	0.95330873569205
13.651751275046	0.95330283190426
13.608373036768	0.95329582883540
13.565269592760	0.95328773521703
13.522438340099	0.95327855976210
13.479876708633	0.95326831116453
13.437582160466	0.95325699809893
13.395552189455	0.95324462922019
13.353784320713	0.95323121316317
13.312276110124	0.95321675854238
13.271025143869	0.95320127395162
13.230029037952	0.95318476796366
13.189285437747	0.95316724912989
13.148792017544	0.95314872598006
13.108546480105	0.95312920702188
13.068546556234	0.95310870074077
13.028790004346	0.95308721559949
12.989274610052	0.95306476003787
12.949998185745	0.95304134247252
12.910958570198	0.95301697129646
12.872153628167	0.95299165487888
12.833581250000	0.95296540156483
12.795239351259	0.95293821967491
12.757125872340	0.95291011750500
12.719238778108	0.95288110332599
12.681576057530	0.95285118538344
12.644135723323	0.95282037189736
12.606915811606	0.95278867106192
12.569914381551	0.95275609104516
12.533129515050	0.95272263998873
12.496559316382	0.95268832600766
12.460201911887	0.95265315719003
12.424055449648	0.95261714159677
12.388118099174	0.95258028726139
12.352388051092	0.95254260218972
12.316863516845	0.95250409435967
12.281542728390	0.95246477172098
12.246423937908	0.95242464219500
12.211505417515	0.95238371367441
12.176785458976	0.95234199402304
12.142262373431	0.95229949107559
12.107934491115	0.95225621263743
12.073800161095	0.95221216648440
12.039857751004	0.95216736036251
12.006105646776	0.95212180198783
11.972542252396	0.95207549904617
11.939165989646	0.95202845919296
11.905975297855	0.95198069005298
11.872968633663	0.95193219922019
11.840144470774	0.95188299425752
11.807501299724	0.95183308269667
11.775037627651	0.95178247203794
11.742751978065	0.95173116974997
11.710642890625	0.95167918326966
11.678708920919	0.95162652000189
11.646948640249	0.95157318731940
11.615360635413	0.95151919256257
11.583943508501	0.95146454303929
11.552695876686	0.95140924602475
11.521616372022	0.95135330876129
11.490703641242	0.95129673845825
11.459956345566	0.95123954229177
11.429373160503	0.95118172740468
11.398952775665	0.95112330090629
11.368693894577	0.95106426987231
11.338595234493	0.95100464134463
11.308655526217	0.95094442233121
11.278873513920	0.95088361980594
11.249247954972	0.95082224070849
11.219777619760	0.95076029194419
11.190461291527	0.95069778038386
11.161297766195	0.95063471286374
11.132285852209	0.95057109618529
11.103424370370	0.95050693711515
11.074712153676	0.95044224238494
11.046148047163	0.95037701869118
11.017730907755	0.95031127269519
10.989459604106	0.95024501102296
10.961333016453	0.95017824026502
10.933350036470	0.95011096697638
10.905509567115	0.95004319767639
10.877810522496	0.94997493884866
10.850251827723	0.94990619694096
10.822832418773	0.94983697836512
10.795551242348	0.94976728949694
10.768407255747	0.94969713667610
10.741399426729	0.94962652620609
10.714526733381	0.94955546435411
10.687788163993	0.94948395735100
10.661182716927	0.94941201139116
10.634709400497	0.94933963263246
10.608367232838	0.94926682719620
10.582155241793	0.94919360116702
10.556072464789	0.94911996059285
10.530117948718	0.94904591148483
10.504290749825	0.94897145981724
10.478589933590	0.94889661152748
10.453014574616	0.94882137251599
10.427563756522	0.94874574864620
10.402236571825	0.94866974574447
10.377032121841	0.94859336960008
10.351949516575	0.94851662596513
10.326987874612	0.94843952055455
10.302146323024	0.94836205904604
10.277423997257	0.94828424708002
10.252820041040	0.94820609025961
10.228333606278	0.94812759415061
10.203963852961	0.94804876428145
10.179709949066	0.94796960614316
10.155571070461	0.94789012518937
10.131546400811	0.94781032683629
10.107635131490	0.94773021646263
10.083836461487	0.94764979940969
10.060149597315	0.94756908098124
10.036573752929	0.94748806644357
10.013108149633	0.94740676102547
9.9897520159947	0.94732516991819
9.9665045877660	0.94724329827551
9.9433651077944	0.94716115121363
9.9203328259431	0.94707873381128
9.8974069990096	0.94699605110965
9.8745868906456	0.94691310811240
9.8518717712783	0.94682990978572
9.8292609180328	0.94674646105827
9.8067536146549	0.94666276682123
9.7843491514360	0.94657883192831
9.7620468251384	0.94649466119576
9.7398459389214	0.94641025940238
9.7177458022690	0.94632563128956
9.6957457309185	0.94624078156129
9.6738450467893	0.94615571488417
9.6520430779137	0.94607043588747
9.6303391583681	0.94598494916312
9.6087326282051	0.94589925926577
9.5872228333866	0.94581337071281
9.5658091257179	0.94572728798441
9.5444908627826	0.94564101552355
9.5232674078780	0.94555455773605
9.5021381299525	0.94546791899063
9.4811024035421	0.94538110361894
9.4601596087094	0.94529411591562
9.4393091309824	0.94520696013832
9.4185503612944	0.94511964050776
9.3978826959248	0.94503216120780
9.3773055364404	0.94494452638545
9.3568182896380	0.94485674015097
9.3364203674868	0.94476880657788
9.3161111870727	0.94468072970307
9.2958901705426	0.94459251352680
9.2757567450495	0.94450416201282
9.2557103426984	0.94441567908838
9.2357504004929	0.94432706864434
9.2158763602828	0.94423833453518
9.1960876687117	0.94414948057915
9.1763837771656	0.94406051055826
9.1567641417227	0.94397142821839
9.1372282231027	0.94388223726937
9.1177754866180	0.94379294138502
9.0984054021244	0.94370354420328
9.0791174439733	0.94361404932622
9.0599110909640	0.94352446032019
9.0407858262967	0.94343478071584
9.0217411375263	0.94334501400825
9.0027765165165	0.94325516365699
8.9838914593947	0.94316523308621
8.9650854665072	0.94307522568473
8.9463580423754	0.94298514480612
8.9277086956522	0.94289499376881
8.9091369390788	0.94280477585616
8.8906422894425	0.94271449431657
8.8722242675348	0.94262415236357
8.8538823981099	0.94253375317590
8.8356162098438	0.94244329989765
8.8174252352941	0.94235279563830
8.7993090108600	0.94226224347288
8.7812670767428	0.94217164644202
8.7632989769073	0.94208100755210
8.7454042590432	0.94199032977533
8.7275824745269	0.94189961604983
8.7098331783847	0.94180886927980
8.6921559292549	0.94171809233558
8.6745502893519	0.94162728805377
8.6570158244297	0.94153645923735
8.6395521037464	0.94144560865578
8.6221587000288	0.94135473904515
8.6048351894374	0.94126385310822
8.5875811515325	0.94117295351461
8.5703961692396	0.94108204290089
8.5532798288160	0.94099112387070
8.5362317198178	0.94090019899484
8.5192514350668	0.94080927081145
8.5023385706183	0.94071834182608
8.4854927257288	0.94062741451183
8.4687135028249	0.94053649130951
8.4520005074711	0.94044557462769
8.4353533483399	0.94035466684288
8.4187716371806	0.94026377029966
8.4022549887892	0.94017288731079
8.3858030209790	0.94008202015732
8.3694153545505	0.93999117108876
8.3530916132627	0.93990034232321
8.3368314238042	0.93980953604745
8.3206344157646	0.93971875441711
8.3045002216066	0.93962799955680
8.2884284766381	0.93953727356024
8.2724188189845	0.93944657849039
8.2564708895621	0.93935591637959
8.2405843320506	0.93926528922971
8.2247587928669	0.93917469901228
8.2089939211391	0.93908414766862
8.1932893686800	0.93899363711000
8.1776447899618	0.93890316921777
8.1620598420909	0.93881274584351
8.1465341847826	0.93872236880915
8.1310674803363	0.93863203990715
8.1156593936113	0.93854176090062
8.1003095920022	0.93845153352348
8.0850177454153	0.93836135948057
8.0697835262450	0.93827124044787
8.0546066093498	0.93818117807257
8.0394866720300	0.93809117397326
8.0244233940043	0.93800122974008
8.0094164573871	0.93791134693485
7.9944655466667	0.93782152709124
7.9795703486825	0.93773177171491
7.9647305526036	0.93764208228368
7.9499458499072	0.93755246024765
7.9352159343568	0.93746290702939
7.9205405019815	0.93737342402405
7.9059192510549	0.93728401259957
7.8913518820742	0.93719467409680
7.8768380977404	0.93710540982965
7.8623776029373	0.93701622108526
7.8479701047120	0.93692710912419
7.8336153122550	0.93683807518050
7.8193129368805	0.93674912046197
7.8050626920073	0.93666024615025
7.7908642931393	0.93657145340100
7.7767174578470	0.93648274334408
7.7626219057483	0.93639411708365
7.7485773584906	0.93630557569842
7.7345835397317	0.93621712024173
7.7206401751223	0.93612875174176
7.7067469922879	0.93604047120168
7.6929037208109	0.93595227959980
7.6791100922131	0.93586417788976
7.6653658399386	0.93577616700065
7.6516706993364	0.93568824783724
7.6380244076433	0.93560042128007
7.6244267039674	0.93551268818567
7.6108773292714	0.93542504938672
7.5973760263558	0.93533750569217
7.5839225398432	0.93525005788746
7.5705166161616	0.93516270673467
7.5571580035291	0.93507545297266
7.5438464519376	0.93498829731729
7.5305817131374	0.93490124046152
7.5173635406219	0.93481428307564
7.5041916896120	0.93472742580741
7.4910659170415	0.93464066928223
7.4779859815415	0.93455401410331
7.4649516434263	0.93446746085183
7.4519626646781	0.93438101008712
7.4390188089330	0.93429466234685
7.4261198414664	0.93420841814714
7.4132655291790	0.93412227798281
7.4004556405826	0.93403624232747
7.3876899457861	0.93395031163376
7.3749682164822	0.93386448633346
7.3622902259332	0.93377876683772
7.3496557489581	0.93369315353717
7.3370645619187	0.93360764680216
7.3245164427071	0.93352224698285
7.3120111707317	0.93343695440947
7.2995485269053	0.93335176939241
7.2871282936315	0.93326669222245
7.2747502547925	0.93318172317092
7.2624141957364	0.93309686248985
7.2501199032648	0.93301211041214
7.2378671656205	0.93292746715179
7.2256557724753	0.93284293290400
7.2134855149182	0.93275850784538
7.2013561854432	0.93267419213412
7.1892675779376	0.93258998591016
7.1772194876706	0.93250588929537
7.1652117112811	0.93242190239369
7.1532440467669	0.93233802529137
7.1413162934731	0.93225425805705
7.1294282520809	0.93217060074203
7.1175797245964	0.93208705338037
7.1057705143399	0.93200361598911
7.0940004259347	0.93192028856841
7.0822692652965	0.93183707110173
7.0705768396226	0.93175396355603
7.0589229573817	0.93167096588191
7.0473074283028	0.93158807801380
7.0357300633654	0.93150529987014
7.0241906747891	0.93142263135352
7.0126890760234	0.93134007235088
7.0012250817375	0.93125762273370
6.9897985078107	0.93117528235813
6.9784091713222	0.93109305106518
6.9670568905415	0.93101092868092
6.9557414849188	0.93092891501660
6.9444627750753	0.93084700986887
6.9332205827937	0.93076521301992
6.9220147310090	0.93068352423769
6.9108450437990	0.93060194327598
6.8997113463751	0.93052046987469
6.8886134650735	0.93043910375996
6.8775512273457	0.93035784464432
6.8665244617499	0.93027669222691
6.8555329979419	0.93019564619361
6.8445766666667	0.93011470621724
6.8336552997493	0.93003387195771
6.8227687300865	0.92995314306219
6.8119167916383	0.92987251916530
6.8010993194192	0.92979199988929
6.7903161494904	0.92971158484414
6.7795671189507	0.92963127362784
6.7688520659291	0.92955106582645
6.7581708295762	0.92947096101435
6.7475232500563	0.92939095875436
6.7369091685393	0.92931105859794
6.7263284271932	0.92923126008534
6.7157808691756	0.92915156274579
6.7052663386267	0.92907196609764
6.6947846806610	0.92899246964853
6.6843357413601	0.92891307289560
6.6739193677649	0.92883377532560
6.6635354078684	0.92875457641509
6.6531837106081	0.92867547563062
6.6428641258586	0.92859647242885
6.6325765044248	0.92851756625676
6.6223206980340	0.92843875655179
6.6120965593295	0.92836004274203
6.6019039418630	0.92828142424635
6.5917427000879	0.92820290047460
6.5816126893524	0.92812447082776
6.5715137658922	0.92804613469809
6.5614457868243	0.92796789146932
6.5514086101399	0.92788974051680
6.5414020946978	0.92781168120766
6.5314261002179	0.92773371290098
6.5214804872743	0.92765583494795
6.5115651172893	0.92757804669203
6.5016798525266	0.92750034746910
6.4918245560849	0.92742273660766
6.4819990918919	0.92734521342894
6.4722033246978	0.92726777724710
6.4624371200690	0.92719042736936
6.4527003443823	0.92711316309620
6.4429928648184	0.92703598372146
6.4333145493562	0.92695888853255
6.4236652667667	0.92688187681058
6.4140448866068	0.92680494783055
6.4044532792138	0.92672810086145
6.3948903156997	0.92665133516648
6.3853558679446	0.92657465000315
6.3758498085921	0.92649804462348
6.3663720110427	0.92642151827414
6.3569223494487	0.92634507019659
6.3475006987084	0.92626869962726
6.3381069344609	0.92619240579767
6.3287409330800	0.92611618793463
6.3194025716695	0.92604004526034
6.3100917280572	0.92596397699259
6.3008082807902	0.92588798234487
6.2915521091291	0.92581206052655
6.2823230930427	0.92573621074302
6.2731211132036	0.92566043219585
6.2639460509820	0.92558472408292
6.2547977884415	0.92550908559858
6.2456762083333	0.92543351593379
6.2365811940919	0.92535801427629
6.2275126298297	0.92528257981073
6.2184704003319	0.92520721171881
6.2094543910522	0.92513190917943
6.2004644881075	0.92505667136886
6.1915005782734	0.92498149746085
6.1825625489792	0.92490638662678
6.1736502883031	0.92483133803584
6.1647636849681	0.92475635085512
6.1559026283368	0.92468142424979
6.1470670084068	0.92460655738321
6.1382567158067	0.92453174941712
6.1294716417910	0.92445699951173
6.1207116782360	0.92438230682587
6.1119767176351	0.92430767051717
6.1032666530945	0.92423308974213
6.0945813783289	0.92415856365633
6.0859207876573	0.92408409141451
6.0772847759984	0.92400967217073
6.0686732388664	0.92393530507850
6.0600860723671	0.92386098929094
6.0515231731934	0.92378672396088
6.0429844386212	0.92371250824099
6.0344697665056	0.92363834128396
6.0259790552764	0.92356422224257
6.0175122039342	0.92349015026989
6.0090691120465	0.92341612451934
6.0006496797438	0.92334214414488
5.9922538077154	0.92326820830108
5.9838813972056	0.92319431614333
5.9755323500100	0.92312046682787
5.9672065684713	0.92304665951201
5.9589039554760	0.92297289335418
5.9506244144502	0.92289916751412
5.9423678493558	0.92282548115293
5.9341341646873	0.92275183343329
5.9259232654675	0.92267822351950
5.9177350572444	0.92260465057764
5.9095694460871	0.92253111377568
5.9014263385827	0.92245761228362
5.8933056418321	0.92238414527359
5.8852072634472	0.92231071191997
5.8771311115468	0.92223731139954
5.8690770947533	0.92216394289154
5.8610451221896	0.92209060557785
5.8530351034752	0.92201729864305
5.8450469487229	0.92194402127458
5.8370805685358	0.92187077266284
5.8291358740035	0.92179755200129
5.8212127766990	0.92172435848657
5.8133111886756	0.92165119131863
5.8054310224632	0.92157804970082
5.7975721910656	0.92150493284001
5.7897346079567	0.92143183994669
5.7819181870781	0.92135877023510
5.7741228428351	0.92128572292332
5.7663484900942	0.92121269723336
5.7585950441798	0.92113969239133
5.7508624208709	0.92106670762747
5.7431505363985	0.92099374217631
5.7354593074421	0.92092079527673
5.7277886511272	0.92084786617210
5.7201384850219	0.92077495411036
5.7125087271341	0.92070205834414
5.7048992959087	0.92062917813083
5.6973101102242	0.92055631273272
5.6897410893908	0.92048346141706
5.6821921531463	0.92041062345617
5.6746632216544	0.92033779812755
5.6671542155009	0.92026498471397
5.6596650556919	0.92019218250355
5.6521956636501	0.92011939078988
5.6447459612126	0.92004660887209
5.6373158706281	0.91997383605493
5.6299053145540	0.91990107164893
5.6225142160540	0.91982831497039
5.6151424985952	0.91975556534156
5.6077900860456	0.91968282209067
5.6004569026714	0.91961008455204
5.5931428731343	0.91953735206618
5.5858479224893	0.91946462397984
5.5785719761816	0.91939189964612
5.5713149600446	0.91931917842456
5.5640768002970	0.91924645968120
5.5568574235403	0.91917374278867
5.5496567567568	0.91910102712628
5.5424747273063	0.91902831208012
5.5353112629247	0.91895559704306
5.5281662917204	0.91888288141492
5.5210397421731	0.91881016460252
5.5139315431304	0.91873744601970
5.5068416238060	0.91866472508748
5.4997699137773	0.91859200123409
5.4927163429828	0.91851927389502
5.4856808417200	0.91844654251315
5.4786633406433	0.91837380653879
5.4716637707611	0.91830106542974
5.4646820634342	0.91822831865137
5.4577181503732	0.91815556567671
5.4507719636364	0.91808280598647
5.4438434356274	0.91801003906916
5.4369324990932	0.91793726442112
5.4300390871219	0.91786448154659
5.4231631331404	0.91779168995777
5.4163045709124	0.91771888917492
5.4094633345363	0.91764607872637
5.4026393584430	0.91757325814859
5.3958325773938	0.91750042698629
5.3890429264785	0.91742758479243
5.3822703411131	0.91735473112831
5.3755147570378	0.91728186556361
5.3687761103152	0.91720898767645
5.3620543373278	0.91713609705344
5.3553493747767	0.91706319328975
5.3486611596789	0.91699027598913
5.3419896293656	0.91691734476400
5.3353347214807	0.91684439923547
5.3286963739780	0.91677143903342
5.3220745251198	0.91669846379650
5.3154691134752	0.91662547317224
5.3088800779175	0.91655246681705
5.3023073576229	0.91647944439627
5.2957508920685	0.91640640558423
5.2892106210303	0.91633335006429
5.2826864845815	0.91626027752888
5.2761784230905	0.91618718767953
5.2696863772192	0.91611408022694
5.2632102879213	0.91604095489098
5.2567500964405	0.91596781140076
5.2503057443082	0.91589464949465
5.2438771733427	0.91582146892031
5.2374643256464	0.91574826943477
5.2310671436050	0.91567505080439
5.2246855698850	0.91560181280495
5.2183195474326	0.91552855522168
5.2119690194715	0.91545527784925
5.2056339295016	0.91538198049185
5.1993142212973	0.91530866296317
5.1930098389052	0.91523532508647
5.1867207266436	0.91516196669460
5.1804468290997	0.91508858762998
5.1741880911288	0.91501518774469
5.1679444578521	0.91494176690046
5.1617158746556	0.91486832496868
5.1555022871883	0.91479486183045
5.1493036413604	0.91472137737659
5.1431198833419	0.91464787150766
5.1369509595613	0.91457434413396
5.1307968167037	0.91450079517558
5.1246574017094	0.91442722456240
5.1185326617722	0.91435363223409
5.1124225443383	0.91428001814017
5.1063269971044	0.91420638223995
5.1002459680163	0.91413272450263
5.0941794052676	0.91405904490724
5.0881272572980	0.91398534344268
5.0820894727920	0.91391162010774
5.0760660006773	0.91383787491107
5.0700567901235	0.91376410787124
5.0640617905405	0.91369031901670
5.0580809515775	0.91361650838580
5.0521142231210	0.91354267602680
5.0461615552937	0.91346882199788
5.0402228984533	0.91339494636712
5.0342982031906	0.91332104921252
5.0283874203287	0.91324713062198
5.0224905009214	0.91317319069331
5.0166073962517	0.91309922953426
5.0107380578305	0.91302524726244
5.0048824373957	0.91295124400539
4.9990404869101	0.91287721990054
4.9932121585610	0.91280317509522
4.9873974047579	0.91272910974661
4.9815961781323	0.91265502402180
4.9758084315353	0.91258091809773
4.9700341180371	0.91250679216119
4.9642731909256	0.91243264640881
4.9585256037049	0.91235848104707
4.9527913100942	0.91228429629225
4.9470702640264	0.91221009237043
4.9413624196473	0.91213586951749
4.9356677313138	0.91206162797908
4.9299861535932	0.91198736801059
4.9243176412615	0.91191308987715
4.9186621493027	0.91183879385362
4.9130196329072	0.91176448022452
4.9073900474709	0.91169014928409
4.9017733485939	0.91161580133619
4.8961694920790	0.91154143669430
4.8905784339315	0.91146705568153
4.8850001303569	0.91139265863055
4.8794345377604	0.91131824588358
4.8738816127459	0.91124381779237
4.8683413121143	0.91116937471817
4.8628135928629	0.91109491703168
4.8572984121841	0.91102044511305
4.8517957274640	0.91094595935182
4.8463054962819	0.91087146014691
4.8408276764088	0.91079694790658
4.8353622258065	0.91072242304839
