#Parameters = {thARC=0.4; nARC=1.5; thsub=1; p=1; nSub=1.5}
#"Wavelength / um"	"T (123) [Real Part]"
#---------------------------------------
14.989622900000	0.95999996031643
14.937342202292	0.96005847612858
14.885424925521	0.96011603776792
14.833867293419	0.96017265247060
14.782665581854	0.96022832746079
14.731816117936	0.96028306995036
14.681315279138	0.96033688713862
14.631159492435	0.96038978621202
14.581345233463	0.96044177434391
14.531869025691	0.96049285869423
14.482727439614	0.96054304640927
14.433917091960	0.96059234462136
14.385434644914	0.96064076044866
14.337276805356	0.96068830099486
14.289440324118	0.96073497334890
14.241921995249	0.96078078458478
14.194718655303	0.96082574176121
14.147827182633	0.96086985192143
14.101244496707	0.96091312209294
14.054967557431	0.96095555928723
14.008993364486	0.96099717049952
13.963318956684	0.96103796270858
13.917941411328	0.96107794287643
13.872857843591	0.96111711794809
13.828065405904	0.96115549485141
13.783561287356	0.96119308049675
13.739342713107	0.96122988177681
13.695406943810	0.96126590556637
13.651751275046	0.96130115872207
13.608373036768	0.96133564808218
13.565269592760	0.96136938046636
13.522438340099	0.96140236267547
13.479876708633	0.96143460149135
13.437582160466	0.96146610367654
13.395552189455	0.96149687597417
13.353784320713	0.96152692510765
13.312276110124	0.96155625778051
13.271025143869	0.96158488067620
13.230029037952	0.96161280045785
13.189285437747	0.96164002376809
13.148792017544	0.96166655722884
13.108546480105	0.96169240744112
13.068546556234	0.96171758098487
13.028790004346	0.96174208441869
12.989274610052	0.96176592427974
12.949998185745	0.96178910708350
12.910958570198	0.96181163932356
12.872153628167	0.96183352747149
12.833581250000	0.96185477797665
12.795239351259	0.96187539726596
12.757125872340	0.96189539174378
12.719238778108	0.96191476779171
12.681576057530	0.96193353176841
12.644135723323	0.96195169000946
12.606915811606	0.96196924882716
12.569914381551	0.96198621451038
12.533129515050	0.96200259332439
12.496559316382	0.96201839151071
12.460201911887	0.96203361528694
12.424055449648	0.96204827084661
12.388118099174	0.96206236435902
12.352388051092	0.96207590196911
12.316863516845	0.96208888979726
12.281542728390	0.96210133393921
12.246423937908	0.96211324046587
12.211505417515	0.96212461542318
12.176785458976	0.96213546483198
12.142262373431	0.96214579468787
12.107934491115	0.96215561096110
12.073800161095	0.96216491959636
12.039857751004	0.96217372651274
12.006105646776	0.96218203760355
11.972542252396	0.96218985873620
11.939165989646	0.96219719575207
11.905975297855	0.96220405446641
11.872968633663	0.96221044066819
11.840144470774	0.96221636012002
11.807501299724	0.96222181855799
11.775037627651	0.96222682169159
11.742751978065	0.96223137520357
11.710642890625	0.96223548474986
11.678708920919	0.96223915595946
11.646948640249	0.96224239443429
11.615360635413	0.96224520574915
11.583943508501	0.96224759545157
11.552695876686	0.96224956906176
11.521616372022	0.96225113207245
11.490703641242	0.96225228994885
11.459956345566	0.96225304812854
11.429373160503	0.96225341202136
11.398952775665	0.96225338700936
11.368693894577	0.96225297844668
11.338595234493	0.96225219165947
11.308655526217	0.96225103194584
11.278873513920	0.96224950457574
11.249247954972	0.96224761479090
11.219777619760	0.96224536780475
11.190461291527	0.96224276880236
11.161297766195	0.96223982294035
11.132285852209	0.96223653534683
11.103424370370	0.96223291112131
11.074712153676	0.96222895533468
11.046148047163	0.96222467302910
11.017730907755	0.96222006921796
10.989459604106	0.96221514888583
10.961333016453	0.96220991698837
10.933350036470	0.96220437845230
10.905509567115	0.96219853817534
10.877810522496	0.96219240102614
10.850251827723	0.96218597184427
10.822832418773	0.96217925544014
10.795551242348	0.96217225659494
10.768407255747	0.96216498006063
10.741399426729	0.96215743055988
10.714526733381	0.96214961278604
10.687788163993	0.96214153140307
10.661182716927	0.96213319104555
10.634709400497	0.96212459631859
10.608367232838	0.96211575179785
10.582155241793	0.96210666202946
10.556072464789	0.96209733153004
10.530117948718	0.96208776478662
10.504290749825	0.96207796625664
10.478589933590	0.96206794036793
10.453014574616	0.96205769151868
10.427563756522	0.96204722407741
10.402236571825	0.96203654238297
10.377032121841	0.96202565074449
10.351949516575	0.96201455344141
10.326987874612	0.96200325472341
10.302146323024	0.96199175881045
10.277423997257	0.96198006989272
10.252820041040	0.96196819213067
10.228333606278	0.96195612965493
10.203963852961	0.96194388656641
10.179709949066	0.96193146693619
10.155571070461	0.96191887480559
10.131546400811	0.96190611418612
10.107635131490	0.96189318905953
10.083836461487	0.96188010337777
10.060149597315	0.96186686106300
10.036573752929	0.96185346600761
10.013108149633	0.96183992207423
9.9897520159947	0.96182623309571
9.9665045877660	0.96181240287515
9.9433651077944	0.96179843518591
9.9203328259431	0.96178433377164
9.8974069990096	0.96177010234623
9.8745868906456	0.96175574459392
9.8518717712783	0.96174126416923
9.8292609180328	0.96172666469703
9.8067536146549	0.96171194977254
9.7843491514360	0.96169712296138
9.7620468251384	0.96168218779953
9.7398459389214	0.96166714779343
9.7177458022690	0.96165200641996
9.6957457309185	0.96163676712646
9.6738450467893	0.96162143333080
9.6520430779137	0.96160600842137
9.6303391583681	0.96159049575714
9.6087326282051	0.96157489866766
9.5872228333866	0.96155922045313
9.5658091257179	0.96154346438442
9.5444908627826	0.96152763370310
9.5232674078780	0.96151173162148
9.5021381299525	0.96149576132265
9.4811024035421	0.96147972596054
9.4601596087094	0.96146362865994
9.4393091309824	0.96144747251654
9.4185503612944	0.96143126059698
9.3978826959248	0.96141499593891
9.3773055364404	0.96139868155102
9.3568182896380	0.96138232041311
9.3364203674868	0.96136591547609
9.3161111870727	0.96134946966210
9.2958901705426	0.96133298586449
9.2757567450495	0.96131646694793
9.2557103426984	0.96129991574845
9.2357504004929	0.96128333507348
9.2158763602828	0.96126672770189
9.1960876687117	0.96125009638412
9.1763837771656	0.96123344384215
9.1567641417227	0.96121677276962
9.1372282231027	0.96120008583187
9.1177754866180	0.96118338566600
9.0984054021244	0.96116667488094
9.0791174439733	0.96114995605751
9.0599110909640	0.96113323174850
9.0407858262967	0.96111650447871
9.0217411375263	0.96109977674503
9.0027765165165	0.96108305101651
8.9838914593947	0.96106632973445
8.9650854665072	0.96104961531242
8.9463580423754	0.96103291013638
8.9277086956522	0.96101621656474
8.9091369390788	0.96099953692841
8.8906422894425	0.96098287353090
8.8722242675348	0.96096622864841
8.8538823981099	0.96094960452985
8.8356162098438	0.96093300339698
8.8174252352941	0.96091642744445
8.7993090108600	0.96089987883989
8.7812670767428	0.96088335972400
8.7632989769073	0.96086687221062
8.7454042590432	0.96085041838680
8.7275824745269	0.96083400031294
8.7098331783847	0.96081762002278
8.6921559292549	0.96080127952357
8.6745502893519	0.96078498079612
8.6570158244297	0.96076872579489
8.6395521037464	0.96075251644807
8.6221587000288	0.96073635465767
8.6048351894374	0.96072024229964
8.5875811515325	0.96070418122392
8.5703961692396	0.96068817325453
8.5532798288160	0.96067222018972
8.5362317198178	0.96065632380198
8.5192514350668	0.96064048583820
8.5023385706183	0.96062470801973
8.4854927257288	0.96060899204246
8.4687135028249	0.96059333957699
8.4520005074711	0.96057775226862
8.4353533483399	0.96056223173754
8.4187716371806	0.96054677957887
8.4022549887892	0.96053139736279
8.3858030209790	0.96051608663462
8.3694153545505	0.96050084891493
8.3530916132627	0.96048568569965
8.3368314238042	0.96047059846013
8.3206344157646	0.96045558864331
8.3045002216066	0.96044065767175
8.2884284766381	0.96042580694380
8.2724188189845	0.96041103783366
8.2564708895621	0.96039635169148
8.2405843320506	0.96038174984351
8.2247587928669	0.96036723359216
8.2089939211391	0.96035280421614
8.1932893686800	0.96033846297054
8.1776447899618	0.96032421108696
8.1620598420909	0.96031004977360
8.1465341847826	0.96029598021540
8.1310674803363	0.96028200357409
8.1156593936113	0.96026812098838
8.1003095920022	0.96025433357400
8.0850177454153	0.96024064242386
8.0697835262450	0.96022704860812
8.0546066093498	0.96021355317436
8.0394866720300	0.96020015714762
8.0244233940043	0.96018686153058
8.0094164573871	0.96017366730363
7.9944655466667	0.96016057542501
7.9795703486825	0.96014758683091
7.9647305526036	0.96013470243559
7.9499458499072	0.96012192313152
7.9352159343568	0.96010924978943
7.9205405019815	0.96009668325851
7.9059192510549	0.96008422436648
7.8913518820742	0.96007187391971
7.8768380977404	0.96005963270333
7.8623776029373	0.96004750148141
7.8479701047120	0.96003548099699
7.8336153122550	0.96002357197226
7.8193129368805	0.96001177510866
7.8050626920073	0.96000009108701
7.7908642931393	0.95998852056762
7.7767174578470	0.95997706419042
7.7626219057483	0.95996572257508
7.7485773584906	0.95995449632112
7.7345835397317	0.95994338600805
7.7206401751223	0.95993239219549
7.7067469922879	0.95992151542329
7.6929037208109	0.95991075621165
7.6791100922131	0.95990011506123
7.6653658399386	0.95988959245333
7.6516706993364	0.95987918884993
7.6380244076433	0.95986890469391
7.6244267039674	0.95985874040908
7.6108773292714	0.95984869640040
7.5973760263558	0.95983877305400
7.5839225398432	0.95982897073743
7.5705166161616	0.95981928979966
7.5571580035291	0.95980973057132
7.5438464519376	0.95980029336474
7.5305817131374	0.95979097847412
7.5173635406219	0.95978178617566
7.5041916896120	0.95977271672768
7.4910659170415	0.95976377037072
7.4779859815415	0.95975494732774
7.4649516434263	0.95974624780415
7.4519626646781	0.95973767198804
7.4390188089330	0.95972922005024
7.4261198414664	0.95972089214446
7.4132655291790	0.95971268840746
7.4004556405826	0.95970460895912
7.3876899457861	0.95969665390262
7.3749682164822	0.95968882332455
7.3622902259332	0.95968111729504
7.3496557489581	0.95967353586786
7.3370645619187	0.95966607908064
7.3245164427071	0.95965874695491
7.3120111707317	0.95965153949625
7.2995485269053	0.95964445669446
7.2871282936315	0.95963749852367
7.2747502547925	0.95963066494245
7.2624141957364	0.95962395589396
7.2501199032648	0.95961737130611
7.2378671656205	0.95961091109163
7.2256557724753	0.95960457514825
7.2134855149182	0.95959836335883
7.2013561854432	0.95959227559145
7.1892675779376	0.95958631169960
7.1772194876706	0.95958047152228
7.1652117112811	0.95957475488413
7.1532440467669	0.95956916159557
7.1413162934731	0.95956369145294
7.1294282520809	0.95955834423862
7.1175797245964	0.95955311972117
7.1057705143399	0.95954801765546
7.0940004259347	0.95954303778281
7.0822692652965	0.95953817983112
7.0705768396226	0.95953344351499
7.0589229573817	0.95952882853586
7.0473074283028	0.95952433458216
7.0357300633654	0.95951996132942
7.0241906747891	0.95951570844043
7.0126890760234	0.95951157556532
7.0012250817375	0.95950756234178
6.9897985078107	0.95950366839509
6.9784091713222	0.95949989333835
6.9670568905415	0.95949623677253
6.9557414849188	0.95949269828668
6.9444627750753	0.95948927745798
6.9332205827937	0.95948597385197
6.9220147310090	0.95948278702258
6.9108450437990	0.95947971651236
6.8997113463751	0.95947676185253
6.8886134650735	0.95947392256318
6.8775512273457	0.95947119815334
6.8665244617499	0.95946858812117
6.8555329979419	0.95946609195407
6.8445766666667	0.95946370912879
6.8336552997493	0.95946143911161
6.8227687300865	0.95945928135843
6.8119167916383	0.95945723531491
6.8010993194192	0.95945530041662
6.7903161494904	0.95945347608918
6.7795671189507	0.95945176174835
6.7688520659291	0.95945015680020
6.7581708295762	0.95944866064123
6.7475232500563	0.95944727265848
6.7369091685393	0.95944599222971
6.7263284271932	0.95944481872350
6.7157808691756	0.95944375149936
6.7052663386267	0.95944278990791
6.6947846806610	0.95944193329099
6.6843357413601	0.95944118098177
6.6739193677649	0.95944053230492
6.6635354078684	0.95943998657670
6.6531837106081	0.95943954310512
6.6428641258586	0.95943920119005
6.6325765044248	0.95943896012339
6.6223206980340	0.95943881918914
6.6120965593295	0.95943877766357
6.6019039418630	0.95943883481534
6.5917427000879	0.95943898990563
6.5816126893524	0.95943924218827
6.5715137658922	0.95943959090986
6.5614457868243	0.95944003530991
6.5514086101399	0.95944057462096
6.5414020946978	0.95944120806872
6.5314261002179	0.95944193487219
6.5214804872743	0.95944275424378
6.5115651172893	0.95944366538944
6.5016798525266	0.95944466750882
6.4918245560849	0.95944575979533
6.4819990918919	0.95944694143635
6.4722033246978	0.95944821161329
6.4624371200690	0.95944956950172
6.4527003443823	0.95945101427156
6.4429928648184	0.95945254508712
6.4333145493562	0.95945416110730
6.4236652667667	0.95945586148565
6.4140448866068	0.95945764537055
6.4044532792138	0.95945951190530
6.3948903156997	0.95946146022826
6.3853558679446	0.95946348947296
6.3758498085921	0.95946559876824
6.3663720110427	0.95946778723837
6.3569223494487	0.95947005400316
6.3475006987084	0.95947239817811
6.3381069344609	0.95947481887448
6.3287409330800	0.95947731519947
6.3194025716695	0.95947988625632
6.3100917280572	0.95948253114441
6.3008082807902	0.95948524895943
6.2915521091291	0.95948803879344
6.2823230930427	0.95949089973504
6.2731211132036	0.95949383086946
6.2639460509820	0.95949683127870
6.2547977884415	0.95949990004162
6.2456762083333	0.95950303623411
6.2365811940919	0.95950623892915
6.2275126298297	0.95950950719695
6.2184704003319	0.95951284010511
6.2094543910522	0.95951623671865
6.2004644881075	0.95951969610022
6.1915005782734	0.95952321731015
6.1825625489792	0.95952679940658
6.1736502883031	0.95953044144561
6.1647636849681	0.95953414248136
6.1559026283368	0.95953790156615
6.1470670084068	0.95954171775054
6.1382567158067	0.95954559008351
6.1294716417910	0.95954951761254
6.1207116782360	0.95955349938372
6.1119767176351	0.95955753444188
6.1032666530945	0.95956162183068
6.0945813783289	0.95956576059277
6.0859207876573	0.95956994976981
6.0772847759984	0.95957418840270
6.0686732388664	0.95957847553158
6.0600860723671	0.95958281019601
6.0515231731934	0.95958719143505
6.0429844386212	0.95959161828738
6.0344697665056	0.95959608979140
6.0259790552764	0.95960060498533
6.0175122039342	0.95960516290737
6.0090691120465	0.95960976259571
6.0006496797438	0.95961440308873
5.9922538077154	0.95961908342507
5.9838813972056	0.95962380264371
5.9755323500100	0.95962855978411
5.9672065684713	0.95963335388632
5.9589039554760	0.95963818399104
5.9506244144502	0.95964304913976
5.9423678493558	0.95964794837485
5.9341341646873	0.95965288073969
5.9259232654675	0.95965784527870
5.9177350572444	0.95966284103753
5.9095694460871	0.95966786706311
5.9014263385827	0.95967292240373
5.8933056418321	0.95967800610921
5.8852072634472	0.95968311723092
5.8771311115468	0.95968825482194
5.8690770947533	0.95969341793713
5.8610451221896	0.95969860563322
5.8530351034752	0.95970381696893
5.8450469487229	0.95970905100503
5.8370805685358	0.95971430680450
5.8291358740035	0.95971958343253
5.8212127766990	0.95972487995672
5.8133111886756	0.95973019544709
5.8054310224632	0.95973552897622
5.7975721910656	0.95974087961931
5.7897346079567	0.95974624645430
5.7819181870781	0.95975162856196
5.7741228428351	0.95975702502596
5.7663484900942	0.95976243493297
5.7585950441798	0.95976785737276
5.7508624208709	0.95977329143827
5.7431505363985	0.95977873622571
5.7354593074421	0.95978419083465
5.7277886511272	0.95978965436811
5.7201384850219	0.95979512593261
5.7125087271341	0.95980060463832
5.7048992959087	0.95980608959909
5.6973101102242	0.95981157993256
5.6897410893908	0.95981707476022
5.6821921531463	0.95982257320754
5.6746632216544	0.95982807440400
5.6671542155009	0.95983357748321
5.6596650556919	0.95983908158297
5.6521956636501	0.95984458584536
5.6447459612126	0.95985008941679
5.6373158706281	0.95985559144815
5.6299053145540	0.95986109109482
5.6225142160540	0.95986658751675
5.6151424985952	0.95987207987861
5.6077900860456	0.95987756734976
5.6004569026714	0.95988304910441
5.5931428731343	0.95988852432167
5.5858479224893	0.95989399218561
5.5785719761816	0.95989945188532
5.5713149600446	0.95990490261506
5.5640768002970	0.95991034357422
5.5568574235403	0.95991577396749
5.5496567567568	0.95992119300487
5.5424747273063	0.95992659990177
5.5353112629247	0.95993199387906
5.5281662917204	0.95993737416315
5.5210397421731	0.95994273998606
5.5139315431304	0.95994809058549
5.5068416238060	0.95995342520486
5.4997699137773	0.95995874309340
5.4927163429828	0.95996404350623
5.4856808417200	0.95996932570437
5.4786633406433	0.95997458895487
5.4716637707611	0.95997983253082
5.4646820634342	0.95998505571143
5.4577181503732	0.95999025778211
5.4507719636364	0.95999543803449
5.4438434356274	0.96000059576653
5.4369324990932	0.96000573028253
5.4300390871219	0.96001084089322
5.4231631331404	0.96001592691580
5.4163045709124	0.96002098767401
5.4094633345363	0.96002602249819
5.4026393584430	0.96003103072530
5.3958325773938	0.96003601169902
5.3890429264785	0.96004096476978
5.3822703411131	0.96004588929480
5.3755147570378	0.96005078463817
5.3687761103152	0.96005565017089
5.3620543373278	0.96006048527093
5.3553493747767	0.96006528932323
5.3486611596789	0.96007006171983
5.3419896293656	0.96007480185985
5.3353347214807	0.96007950914958
5.3286963739780	0.96008418300249
5.3220745251198	0.96008882283931
5.3154691134752	0.96009342808806
5.3088800779175	0.96009799818408
5.3023073576229	0.96010253257009
5.2957508920685	0.96010703069625
5.2892106210303	0.96011149202016
5.2826864845815	0.96011591600693
5.2761784230905	0.96012030212921
5.2696863772192	0.96012464986723
5.2632102879213	0.96012895870885
5.2567500964405	0.96013322814956
5.2503057443082	0.96013745769258
5.2438771733427	0.96014164684885
5.2374643256464	0.96014579513704
5.2310671436050	0.96014990208367
5.2246855698850	0.96015396722307
5.2183195474326	0.96015799009743
5.2119690194715	0.96016197025685
5.2056339295016	0.96016590725934
5.1993142212973	0.96016980067090
5.1930098389052	0.96017365006548
5.1867207266436	0.96017745502509
5.1804468290997	0.96018121513974
5.1741880911288	0.96018493000754
5.1679444578521	0.96018859923469
5.1617158746556	0.96019222243551
5.1555022871883	0.96019579923247
5.1493036413604	0.96019932925621
5.1431198833419	0.96020281214556
5.1369509595613	0.96020624754757
5.1307968167037	0.96020963511753
5.1246574017094	0.96021297451896
5.1185326617722	0.96021626542369
5.1124225443383	0.96021950751183
5.1063269971044	0.96022270047180
5.1002459680163	0.96022584400035
5.0941794052676	0.96022893780256
5.0881272572980	0.96023198159190
5.0820894727920	0.96023497509019
5.0760660006773	0.96023791802764
5.0700567901235	0.96024081014288
5.0640617905405	0.96024365118292
5.0580809515775	0.96024644090321
5.0521142231210	0.96024917906764
5.0461615552937	0.96025186544852
5.0402228984533	0.96025449982663
5.0342982031906	0.96025708199120
5.0283874203287	0.96025961173992
5.0224905009214	0.96026208887895
5.0166073962517	0.96026451322294
5.0107380578305	0.96026688459500
5.0048824373957	0.96026920282673
4.9990404869101	0.96027146775821
4.9932121585610	0.96027367923802
4.9873974047579	0.96027583712321
4.9815961781323	0.96027794127931
4.9758084315353	0.96027999158037
4.9700341180371	0.96028198790889
4.9642731909256	0.96028393015586
4.9585256037049	0.96028581822076
4.9527913100942	0.96028765201153
4.9470702640264	0.96028943144457
4.9413624196473	0.96029115644476
4.9356677313138	0.96029282694543
4.9299861535932	0.96029444288834
4.9243176412615	0.96029600422371
4.9186621493027	0.96029751091018
4.9130196329072	0.96029896291480
4.9073900474709	0.96030036021303
4.9017733485939	0.96030170278874
4.8961694920790	0.96030299063416
4.8905784339315	0.96030422374991
4.8850001303569	0.96030540214494
4.8794345377604	0.96030652583655
4.8738816127459	0.96030759485036
4.8683413121143	0.96030860922030
4.8628135928629	0.96030956898857
4.8572984121841	0.96031047420567
4.8517957274640	0.96031132493030
4.8463054962819	0.96031212122944
4.8408276764088	0.96031286317824
4.8353622258065	0.96031355086003
