#Parameters = {thARC=0; nARC=1.5; thsub=1; p=1; nSub=1.5}
#"Wavelength / um"	"T (121) [Real Part]"
#---------------------------------------
14.989622900000	0.96000002517174
14.937342202292	0.96001203438038
14.885424925521	0.96002382730341
14.833867293419	0.96003540590307
14.782665581854	0.96004677213308
14.731816117936	0.96005792793865
14.681315279138	0.96006887525643
14.631159492435	0.96007961601452
14.581345233463	0.96009015213247
14.531869025691	0.96010048552126
14.482727439614	0.96011061808329
14.433917091960	0.96012055171239
14.385434644914	0.96013028829377
14.337276805356	0.96013982970405
14.289440324118	0.96014917781126
14.241921995249	0.96015833447478
14.194718655303	0.96016730154540
14.147827182633	0.96017608086525
14.101244496707	0.96018467426785
14.054967557431	0.96019308357807
14.008993364486	0.96020131061212
13.963318956684	0.96020935717758
13.917941411328	0.96021722507335
13.872857843591	0.96022491608968
13.828065405904	0.96023243200816
13.783561287356	0.96023977460170
13.739342713107	0.96024694563453
13.695406943810	0.96025394686221
13.651751275046	0.96026078003163
13.608373036768	0.96026744688097
13.565269592760	0.96027394913974
13.522438340099	0.96028028852877
13.479876708633	0.96028646676018
13.437582160466	0.96029248553740
13.395552189455	0.96029834655519
13.353784320713	0.96030405149959
13.312276110124	0.96030960204796
13.271025143869	0.96031499986894
13.230029037952	0.96032024662250
13.189285437747	0.96032534395991
13.148792017544	0.96033029352373
13.108546480105	0.96033509694785
13.068546556234	0.96033975585743
13.028790004346	0.96034427186896
12.989274610052	0.96034864659024
12.949998185745	0.96035288162038
12.910958570198	0.96035697854980
12.872153628167	0.96036093896022
12.833581250000	0.96036476442469
12.795239351259	0.96036845650759
12.757125872340	0.96037201676462
12.719238778108	0.96037544674278
12.681576057530	0.96037874798043
12.644135723323	0.96038192200725
12.606915811606	0.96038497034428
12.569914381551	0.96038789450386
12.533129515050	0.96039069598972
12.496559316382	0.96039337629693
12.460201911887	0.96039593691190
12.424055449648	0.96039837931243
12.388118099174	0.96040070496767
12.352388051092	0.96040291533815
12.316863516845	0.96040501187579
12.281542728390	0.96040699602389
12.246423937908	0.96040886921714
12.211505417515	0.96041063288164
12.176785458976	0.96041228843490
12.142262373431	0.96041383728584
12.107934491115	0.96041528083481
12.073800161095	0.96041662047358
12.039857751004	0.96041785758538
12.006105646776	0.96041899354488
11.972542252396	0.96042002971820
11.939165989646	0.96042096746293
11.905975297855	0.96042180812815
11.872968633663	0.96042255305440
11.840144470774	0.96042320357374
11.807501299724	0.96042376100972
11.775037627651	0.96042422667741
11.742751978065	0.96042460188340
11.710642890625	0.96042488792582
11.678708920919	0.96042508609435
11.646948640249	0.96042519767021
11.615360635413	0.96042522392621
11.583943508501	0.96042516612674
11.552695876686	0.96042502552777
11.521616372022	0.96042480337686
11.490703641242	0.96042450091323
11.459956345566	0.96042411936768
11.429373160503	0.96042365996269
11.398952775665	0.96042312391236
11.368693894577	0.96042251242248
11.338595234493	0.96042182669051
11.308655526217	0.96042106790561
11.278873513920	0.96042023724864
11.249247954972	0.96041933589217
11.219777619760	0.96041836500053
11.190461291527	0.96041732572978
11.161297766195	0.96041621922774
11.132285852209	0.96041504663402
11.103424370370	0.96041380908002
11.074712153676	0.96041250768895
11.046148047163	0.96041114357582
11.017730907755	0.96040971784751
10.989459604106	0.96040823160272
10.961333016453	0.96040668593205
10.933350036470	0.96040508191798
10.905509567115	0.96040342063486
10.877810522496	0.96040170314900
10.850251827723	0.96039993051862
10.822832418773	0.96039810379388
10.795551242348	0.96039622401695
10.768407255747	0.96039429222193
10.741399426729	0.96039230943497
10.714526733381	0.96039027667421
10.687788163993	0.96038819494983
10.661182716927	0.96038606526408
10.634709400497	0.96038388861126
10.608367232838	0.96038166597778
10.582155241793	0.96037939834215
10.556072464789	0.96037708667502
10.530117948718	0.96037473193915
10.504290749825	0.96037233508951
10.478589933590	0.96036989707322
10.453014574616	0.96036741882962
10.427563756522	0.96036490129027
10.402236571825	0.96036234537897
10.377032121841	0.96035975201177
10.351949516575	0.96035712209701
10.326987874612	0.96035445653535
10.302146323024	0.96035175621973
10.277423997257	0.96034902203547
10.252820041040	0.96034625486022
10.228333606278	0.96034345556403
10.203963852961	0.96034062500934
10.179709949066	0.96033776405104
10.155571070461	0.96033487353643
10.131546400811	0.96033195430530
10.107635131490	0.96032900718990
10.083836461487	0.96032603301503
10.060149597315	0.96032303259797
10.036573752929	0.96032000674859
10.013108149633	0.96031695626932
9.9897520159947	0.96031388195518
9.9665045877660	0.96031078459381
9.9433651077944	0.96030766496549
9.9203328259431	0.96030452384316
9.8974069990096	0.96030136199245
9.8745868906456	0.96029818017169
9.8518717712783	0.96029497913194
9.8292609180328	0.96029175961702
9.8067536146549	0.96028852236352
9.7843491514360	0.96028526810082
9.7620468251384	0.96028199755114
9.7398459389214	0.96027871142954
9.7177458022690	0.96027541044393
9.6957457309185	0.96027209529513
9.6738450467893	0.96026876667688
9.6520430779137	0.96026542527586
9.6303391583681	0.96026207177169
9.6087326282051	0.96025870683700
9.5872228333866	0.96025533113744
9.5658091257179	0.96025194533168
9.5444908627826	0.96024855007144
9.5232674078780	0.96024514600157
9.5021381299525	0.96024173375998
9.4811024035421	0.96023831397774
9.4601596087094	0.96023488727909
9.4393091309824	0.96023145428143
9.4185503612944	0.96022801559539
9.3978826959248	0.96022457182483
9.3773055364404	0.96022112356687
9.3568182896380	0.96021767141191
9.3364203674868	0.96021421594367
9.3161111870727	0.96021075773920
9.2958901705426	0.96020729736892
9.2757567450495	0.96020383539664
9.2557103426984	0.96020037237959
9.2357504004929	0.96019690886841
9.2158763602828	0.96019344540725
9.1960876687117	0.96018998253372
9.1763837771656	0.96018652077897
9.1567641417227	0.96018306066768
9.1372282231027	0.96017960271810
9.1177754866180	0.96017614744211
9.0984054021244	0.96017269534519
9.0791174439733	0.96016924692645
9.0599110909640	0.96016580267874
9.0407858262967	0.96016236308855
9.0217411375263	0.96015892863615
9.0027765165165	0.96015549979555
8.9838914593947	0.96015207703454
8.9650854665072	0.96014866081474
8.9463580423754	0.96014525159161
8.9277086956522	0.96014184981446
8.9091369390788	0.96013845592652
8.8906422894425	0.96013507036494
8.8722242675348	0.96013169356079
8.8538823981099	0.96012832593916
8.8356162098438	0.96012496791913
8.8174252352941	0.96012161991381
8.7993090108600	0.96011828233037
8.7812670767428	0.96011495557009
8.7632989769073	0.96011164002834
8.7454042590432	0.96010833609466
8.7275824745269	0.96010504415275
8.7098331783847	0.96010176458052
8.6921559292549	0.96009849775010
8.6745502893519	0.96009524402790
8.6570158244297	0.96009200377459
8.6395521037464	0.96008877734518
8.6221587000288	0.96008556508900
8.6048351894374	0.96008236734978
8.5875811515325	0.96007918446563
8.5703961692396	0.96007601676910
8.5532798288160	0.96007286458720
8.5362317198178	0.96006972824141
8.5192514350668	0.96006660804775
8.5023385706183	0.96006350431678
8.4854927257288	0.96006041735361
8.4687135028249	0.96005734745799
8.4520005074711	0.96005429492426
8.4353533483399	0.96005126004147
8.4187716371806	0.96004824309332
8.4022549887892	0.96004524435823
8.3858030209790	0.96004226410940
8.3694153545505	0.96003930261478
8.3530916132627	0.96003636013712
8.3368314238042	0.96003343693405
8.3206344157646	0.96003053325800
8.3045002216066	0.96002764935635
8.2884284766381	0.96002478547138
8.2724188189845	0.96002194184032
8.2564708895621	0.96001911869540
8.2405843320506	0.96001631626383
8.2247587928669	0.96001353476790
8.2089939211391	0.96001077442495
8.1932893686800	0.96000803544742
8.1776447899618	0.96000531804288
8.1620598420909	0.96000262241408
8.1465341847826	0.95999994875892
8.1310674803363	0.95999729727056
8.1156593936113	0.95999466813739
8.1003095920022	0.95999206154308
8.0850177454153	0.95998947766661
8.0697835262450	0.95998691668229
8.0546066093498	0.95998437875981
8.0394866720300	0.95998186406426
8.0244233940043	0.95997937275613
8.0094164573871	0.95997690499141
7.9944655466667	0.95997446092155
7.9795703486825	0.95997204069352
7.9647305526036	0.95996964444983
7.9499458499072	0.95996727232860
7.9352159343568	0.95996492446351
7.9205405019815	0.95996260098392
7.9059192510549	0.95996030201482
7.8913518820742	0.95995802767692
7.8768380977404	0.95995577808666
7.8623776029373	0.95995355335622
7.8479701047120	0.95995135359357
7.8336153122550	0.95994917890251
7.8193129368805	0.95994702938267
7.8050626920073	0.95994490512956
7.7908642931393	0.95994280623461
7.7767174578470	0.95994073278518
7.7626219057483	0.95993868486458
7.7485773584906	0.95993666255214
7.7345835397317	0.95993466592320
7.7206401751223	0.95993269504917
7.7067469922879	0.95993074999754
7.6929037208109	0.95992883083191
7.6791100922131	0.95992693761204
7.6653658399386	0.95992507039385
7.6516706993364	0.95992322922948
7.6380244076433	0.95992141416731
7.6244267039674	0.95991962525197
7.6108773292714	0.95991786252439
7.5973760263558	0.95991612602185
7.5839225398432	0.95991441577795
7.5705166161616	0.95991273182270
7.5571580035291	0.95991107418252
7.5438464519376	0.95990944288027
7.5305817131374	0.95990783793531
7.5173635406219	0.95990625936346
7.5041916896120	0.95990470717712
7.4910659170415	0.95990318138524
7.4779859815415	0.95990168199335
7.4649516434263	0.95990020900363
7.4519626646781	0.95989876241490
7.4390188089330	0.95989734222266
7.4261198414664	0.95989594841914
7.4132655291790	0.95989458099330
7.4004556405826	0.95989323993089
7.3876899457861	0.95989192521444
7.3749682164822	0.95989063682333
7.3622902259332	0.95988937473379
7.3496557489581	0.95988813891897
7.3370645619187	0.95988692934891
7.3245164427071	0.95988574599060
7.3120111707317	0.95988458880805
7.2995485269053	0.95988345776224
7.2871282936315	0.95988235281120
7.2747502547925	0.95988127391004
7.2624141957364	0.95988022101096
7.2501199032648	0.95987919406328
7.2378671656205	0.95987819301350
7.2256557724753	0.95987721780529
7.2134855149182	0.95987626837954
7.2013561854432	0.95987534467437
7.1892675779376	0.95987444662520
7.1772194876706	0.95987357416474
7.1652117112811	0.95987272722303
7.1532440467669	0.95987190572748
7.1413162934731	0.95987110960287
7.1294282520809	0.95987033877143
7.1175797245964	0.95986959315282
7.1057705143399	0.95986887266417
7.0940004259347	0.95986817722013
7.0822692652965	0.95986750673289
7.0705768396226	0.95986686111218
7.0589229573817	0.95986624026534
7.0473074283028	0.95986564409734
7.0357300633654	0.95986507251077
7.0241906747891	0.95986452540592
7.0126890760234	0.95986400268079
7.0012250817375	0.95986350423110
6.9897985078107	0.95986302995035
6.9784091713222	0.95986257972981
6.9670568905415	0.95986215345859
6.9557414849188	0.95986175102363
6.9444627750753	0.95986137230978
6.9332205827937	0.95986101719976
6.9220147310090	0.95986068557424
6.9108450437990	0.95986037731184
6.8997113463751	0.95986009228919
6.8886134650735	0.95985983038091
6.8775512273457	0.95985959145969
6.8665244617499	0.95985937539628
6.8555329979419	0.95985918205952
6.8445766666667	0.95985901131641
6.8336552997493	0.95985886303207
6.8227687300865	0.95985873706982
6.8119167916383	0.95985863329120
6.8010993194192	0.95985855155597
6.7903161494904	0.95985849172217
6.7795671189507	0.95985845364613
6.7688520659291	0.95985843718249
6.7581708295762	0.95985844218425
6.7475232500563	0.95985846850277
6.7369091685393	0.95985851598784
6.7263284271932	0.95985858448764
6.7157808691756	0.95985867384885
6.7052663386267	0.95985878391659
6.6947846806610	0.95985891453451
6.6843357413601	0.95985906554480
6.6739193677649	0.95985923678821
6.6635354078684	0.95985942810406
6.6531837106081	0.95985963933032
6.6428641258586	0.95985987030357
6.6325765044248	0.95986012085907
6.6223206980340	0.95986039083079
6.6120965593295	0.95986068005139
6.6019039418630	0.95986098835231
6.5917427000879	0.95986131556374
6.5816126893524	0.95986166151467
6.5715137658922	0.95986202603293
6.5614457868243	0.95986240894519
6.5514086101399	0.95986281007700
6.5414020946978	0.95986322925280
6.5314261002179	0.95986366629598
6.5214804872743	0.95986412102887
6.5115651172893	0.95986459327277
6.5016798525266	0.95986508284799
6.4918245560849	0.95986558957389
6.4819990918919	0.95986611326885
6.4722033246978	0.95986665375035
6.4624371200690	0.95986721083496
6.4527003443823	0.95986778433841
6.4429928648184	0.95986837407555
6.4333145493562	0.95986897986041
6.4236652667667	0.95986960150625
6.4140448866068	0.95987023882553
6.4044532792138	0.95987089162999
6.3948903156997	0.95987155973061
6.3853558679446	0.95987224293770
6.3758498085921	0.95987294106088
6.3663720110427	0.95987365390913
6.3569223494487	0.95987438129080
6.3475006987084	0.95987512301363
6.3381069344609	0.95987587888478
6.3287409330800	0.95987664871087
6.3194025716695	0.95987743229797
6.3100917280572	0.95987822945165
6.3008082807902	0.95987903997700
6.2915521091291	0.95987986367863
6.2823230930427	0.95988070036072
6.2731211132036	0.95988154982705
6.2639460509820	0.95988241188099
6.2547977884415	0.95988328632555
6.2456762083333	0.95988417296338
6.2365811940919	0.95988507159681
6.2275126298297	0.95988598202789
6.2184704003319	0.95988690405836
6.2094543910522	0.95988783748973
6.2004644881075	0.95988878212325
6.1915005782734	0.95988973775997
6.1825625489792	0.95989070420077
6.1736502883031	0.95989168124632
6.1647636849681	0.95989266869719
6.1559026283368	0.95989366635379
6.1470670084068	0.95989467401643
6.1382567158067	0.95989569148538
6.1294716417910	0.95989671856079
6.1207116782360	0.95989775504282
6.1119767176351	0.95989880073159
6.1032666530945	0.95989985542722
6.0945813783289	0.95990091892988
6.0859207876573	0.95990199103976
6.0772847759984	0.95990307155713
6.0686732388664	0.95990416028235
6.0600860723671	0.95990525701587
6.0515231731934	0.95990636155830
6.0429844386212	0.95990747371037
6.0344697665056	0.95990859327299
6.0259790552764	0.95990972004726
6.0175122039342	0.95991085383449
6.0090691120465	0.95991199443622
6.0006496797438	0.95991314165424
5.9922538077154	0.95991429529059
5.9838813972056	0.95991545514764
5.9755323500100	0.95991662102802
5.9672065684713	0.95991779273472
5.9589039554760	0.95991897007107
5.9506244144502	0.95992015284075
5.9423678493558	0.95992134084784
5.9341341646873	0.95992253389682
5.9259232654675	0.95992373179258
5.9177350572444	0.95992493434047
5.9095694460871	0.95992614134629
5.9014263385827	0.95992735261632
5.8933056418321	0.95992856795732
5.8852072634472	0.95992978717658
5.8771311115468	0.95993101008192
5.8690770947533	0.95993223648171
5.8610451221896	0.95993346618487
5.8530351034752	0.95993469900094
5.8450469487229	0.95993593474002
5.8370805685358	0.95993717321287
5.8291358740035	0.95993841423085
5.8212127766990	0.95993965760600
5.8133111886756	0.95994090315103
5.8054310224632	0.95994215067932
5.7975721910656	0.95994340000496
5.7897346079567	0.95994465094278
5.7819181870781	0.95994590330833
5.7741228428351	0.95994715691791
5.7663484900942	0.95994841158861
5.7585950441798	0.95994966713829
5.7508624208709	0.95995092338561
5.7431505363985	0.95995218015007
5.7354593074421	0.95995343725197
5.7277886511272	0.95995469451250
5.7201384850219	0.95995595175367
5.7125087271341	0.95995720879841
5.7048992959087	0.95995846547053
5.6973101102242	0.95995972159473
5.6897410893908	0.95996097699668
5.6821921531463	0.95996223150294
5.6746632216544	0.95996348494106
5.6671542155009	0.95996473713956
5.6596650556919	0.95996598792791
5.6521956636501	0.95996723713661
5.6447459612126	0.95996848459716
5.6373158706281	0.95996973014209
5.6299053145540	0.95997097360497
5.6225142160540	0.95997221482041
5.6151424985952	0.95997345362410
5.6077900860456	0.95997468985281
5.6004569026714	0.95997592334440
5.5931428731343	0.95997715393784
5.5858479224893	0.95997838147321
5.5785719761816	0.95997960579174
5.5713149600446	0.95998082673579
5.5640768002970	0.95998204414889
5.5568574235403	0.95998325787573
5.5496567567568	0.95998446776218
5.5424747273063	0.95998567365532
5.5353112629247	0.95998687540342
5.5281662917204	0.95998807285599
5.5210397421731	0.95998926586374
5.5139315431304	0.95999045427866
5.5068416238060	0.95999163795396
5.4997699137773	0.95999281674414
5.4927163429828	0.95999399050495
5.4856808417200	0.95999515909344
5.4786633406433	0.95999632236798
5.4716637707611	0.95999748018821
5.4646820634342	0.95999863241511
5.4577181503732	0.95999977891100
5.4507719636364	0.96000091953952
5.4438434356274	0.96000205416566
5.4369324990932	0.96000318265579
5.4300390871219	0.96000430487763
5.4231631331404	0.96000542070030
5.4163045709124	0.96000652999429
5.4094633345363	0.96000763263151
5.4026393584430	0.96000872848524
5.3958325773938	0.96000981743023
5.3890429264785	0.96001089934262
5.3822703411131	0.96001197409999
5.3755147570378	0.96001304158137
5.3687761103152	0.96001410166725
5.3620543373278	0.96001515423957
5.3553493747767	0.96001619918175
5.3486611596789	0.96001723637867
5.3419896293656	0.96001826571670
5.3353347214807	0.96001928708373
5.3286963739780	0.96002030036911
5.3220745251198	0.96002130546373
5.3154691134752	0.96002230225999
5.3088800779175	0.96002329065179
5.3023073576229	0.96002427053459
5.2957508920685	0.96002524180538
5.2892106210303	0.96002620436269
5.2826864845815	0.96002715810659
5.2761784230905	0.96002810293872
5.2696863772192	0.96002903876229
5.2632102879213	0.96002996548206
5.2567500964405	0.96003088300438
5.2503057443082	0.96003179123719
5.2438771733427	0.96003269009000
5.2374643256464	0.96003357947391
5.2310671436050	0.96003445930164
5.2246855698850	0.96003532948749
5.2183195474326	0.96003618994739
5.2119690194715	0.96003704059888
5.2056339295016	0.96003788136109
5.1993142212973	0.96003871215482
5.1930098389052	0.96003953290247
5.1867207266436	0.96004034352807
5.1804468290997	0.96004114395729
5.1741880911288	0.96004193411746
5.1679444578521	0.96004271393753
5.1617158746556	0.96004348334811
5.1555022871883	0.96004424228146
5.1493036413604	0.96004499067149
5.1431198833419	0.96004572845378
5.1369509595613	0.96004645556556
5.1307968167037	0.96004717194575
5.1246574017094	0.96004787753489
5.1185326617722	0.96004857227525
5.1124225443383	0.96004925611072
5.1063269971044	0.96004992898690
5.1002459680163	0.96005059085106
5.0941794052676	0.96005124165214
5.0881272572980	0.96005188134077
5.0820894727920	0.96005250986926
5.0760660006773	0.96005312719161
5.0700567901235	0.96005373326352
5.0640617905405	0.96005432804234
5.0580809515775	0.96005491148714
5.0521142231210	0.96005548355869
5.0461615552937	0.96005604421941
5.0402228984533	0.96005659343345
5.0342982031906	0.96005713116663
5.0283874203287	0.96005765738649
5.0224905009214	0.96005817206222
5.0166073962517	0.96005867516476
5.0107380578305	0.96005916666669
5.0048824373957	0.96005964654231
4.9990404869101	0.96006011476761
4.9932121585610	0.96006057132028
4.9873974047579	0.96006101617969
4.9815961781323	0.96006144932689
4.9758084315353	0.96006187074465
4.9700341180371	0.96006228041740
4.9642731909256	0.96006267833129
4.9585256037049	0.96006306447412
4.9527913100942	0.96006343883540
4.9470702640264	0.96006380140630
4.9413624196473	0.96006415217971
4.9356677313138	0.96006449115016
4.9299861535932	0.96006481831387
4.9243176412615	0.96006513366874
4.9186621493027	0.96006543721434
4.9130196329072	0.96006572895191
4.9073900474709	0.96006600888435
4.9017733485939	0.96006627701622
4.8961694920790	0.96006653335377
4.8905784339315	0.96006677790487
4.8850001303569	0.96006701067906
4.8794345377604	0.96006723168754
4.8738816127459	0.96006744094315
4.8683413121143	0.96006763846035
4.8628135928629	0.96006782425528
4.8572984121841	0.96006799834569
4.8517957274640	0.96006816075095
4.8463054962819	0.96006831149209
4.8408276764088	0.96006845059174
4.8353622258065	0.96006857807413
