#Parameters = {thARC=0.2; nARC=1.5; thsub=1; p=1; nSub=1.5}
#"Wavelength / um"	"T (122) [Real Part]"
#---------------------------------------
14.989622900000	0.95999998259273
14.937342202292	0.96002781936405
14.885424925521	0.96005517625754
14.833867293419	0.96008205731431
14.782665581854	0.96010846656233
14.731816117936	0.96013440801628
14.681315279138	0.96015988567752
14.631159492435	0.96018490353400
14.581345233463	0.96020946556016
14.531869025691	0.96023357571690
14.482727439614	0.96025723795147
14.433917091960	0.96028045619742
14.385434644914	0.96030323437450
14.337276805356	0.96032557638864
14.289440324118	0.96034748613182
14.241921995249	0.96036896748203
14.194718655303	0.96039002430322
14.147827182633	0.96041066044519
14.101244496707	0.96043087974357
14.054967557431	0.96045068601972
14.008993364486	0.96047008308068
13.963318956684	0.96048907471912
13.917941411328	0.96050766471324
13.872857843591	0.96052585682677
13.828065405904	0.96054365480883
13.783561287356	0.96056106239395
13.739342713107	0.96057808330196
13.695406943810	0.96059472123795
13.651751275046	0.96061097989222
13.608373036768	0.96062686294021
13.565269592760	0.96064237404246
13.522438340099	0.96065751684455
13.479876708633	0.96067229497703
13.437582160466	0.96068671205542
13.395552189455	0.96070077168010
13.353784320713	0.96071447743629
13.312276110124	0.96072783289401
13.271025143869	0.96074084160801
13.230029037952	0.96075350711772
13.189285437747	0.96076583294725
13.148792017544	0.96077782260529
13.108546480105	0.96078947958508
13.068546556234	0.96080080736440
13.028790004346	0.96081180940549
12.989274610052	0.96082248915502
12.949998185745	0.96083285004404
12.910958570198	0.96084289548799
12.872153628167	0.96085262888658
12.833581250000	0.96086205362382
12.795239351259	0.96087117306795
12.757125872340	0.96087999057141
12.719238778108	0.96088850947083
12.681576057530	0.96089673308693
12.644135723323	0.96090466472458
12.606915811606	0.96091230767267
12.569914381551	0.96091966520417
12.533129515050	0.96092674057603
12.496559316382	0.96093353702917
12.460201911887	0.96094005778847
12.424055449648	0.96094630606274
12.388118099174	0.96095228504465
12.352388051092	0.96095799791077
12.316863516845	0.96096344782147
12.281542728390	0.96096863792097
12.246423937908	0.96097357133725
12.211505417515	0.96097825118209
12.176785458976	0.96098268055100
12.142262373431	0.96098686252320
12.107934491115	0.96099080016163
12.073800161095	0.96099449651290
12.039857751004	0.96099795460732
12.006105646776	0.96100117745879
11.972542252396	0.96100416806488
11.939165989646	0.96100692940677
11.905975297855	0.96100946444921
11.872968633663	0.96101177614056
11.840144470774	0.96101386741273
11.807501299724	0.96101574118120
11.775037627651	0.96101740034497
11.742751978065	0.96101884778658
11.710642890625	0.96102008637210
11.678708920919	0.96102111895109
11.646948640249	0.96102194835662
11.615360635413	0.96102257740524
11.583943508501	0.96102300889698
11.552695876686	0.96102324561537
11.521616372022	0.96102329032738
11.490703641242	0.96102314578344
11.459956345566	0.96102281471747
11.429373160503	0.96102229984681
11.398952775665	0.96102160387226
11.368693894577	0.96102072947806
11.338595234493	0.96101967933192
11.308655526217	0.96101845608495
11.278873513920	0.96101706237174
11.249247954972	0.96101550081031
11.219777619760	0.96101377400210
11.190461291527	0.96101188453204
11.161297766195	0.96100983496847
11.132285852209	0.96100762786318
11.103424370370	0.96100526575143
11.074712153676	0.96100275115193
11.046148047163	0.96100008656686
11.017730907755	0.96099727448184
10.989459604106	0.96099431736599
10.961333016453	0.96099121767190
10.933350036470	0.96098797783565
10.905509567115	0.96098460027682
10.877810522496	0.96098108739848
10.850251827723	0.96097744158723
10.822832418773	0.96097366521320
10.795551242348	0.96096976063003
10.768407255747	0.96096573017493
10.741399426729	0.96096157616865
10.714526733381	0.96095730091554
10.687788163993	0.96095290670350
10.661182716927	0.96094839580406
10.634709400497	0.96094377047234
10.608367232838	0.96093903294710
10.582155241793	0.96093418545075
10.556072464789	0.96092923018935
10.530117948718	0.96092416935265
10.504290749825	0.96091900511407
10.478589933590	0.96091373963078
10.453014574616	0.96090837504366
10.427563756522	0.96090291347734
10.402236571825	0.96089735704024
10.377032121841	0.96089170782455
10.351949516575	0.96088596790629
10.326987874612	0.96088013934531
10.302146323024	0.96087422418531
10.277423997257	0.96086822445390
10.252820041040	0.96086214216255
10.228333606278	0.96085597930669
10.203963852961	0.96084973786569
10.179709949066	0.96084341980290
10.155571070461	0.96083702706567
10.131546400811	0.96083056158538
10.107635131490	0.96082402527747
10.083836461487	0.96081742004145
10.060149597315	0.96081074776096
10.036573752929	0.96080401030376
10.013108149633	0.96079720952179
9.9897520159947	0.96079034725118
9.9665045877660	0.96078342531227
9.9433651077944	0.96077644550970
9.9203328259431	0.96076940963235
9.8974069990096	0.96076231945345
9.8745868906456	0.96075517673057
9.8518717712783	0.96074798320564
9.8292609180328	0.96074074060505
9.8067536146549	0.96073345063960
9.7843491514360	0.96072611500458
9.7620468251384	0.96071873537982
9.7398459389214	0.96071131342966
9.7177458022690	0.96070385080305
9.6957457309185	0.96069634913357
9.6738450467893	0.96068881003943
9.6520430779137	0.96068123512355
9.6303391583681	0.96067362597357
9.6087326282051	0.96066598416192
9.5872228333866	0.96065831124581
9.5658091257179	0.96065060876731
9.5444908627826	0.96064287825334
9.5232674078780	0.96063512121579
9.5021381299525	0.96062733915148
9.4811024035421	0.96061953354222
9.4601596087094	0.96061170585490
9.4393091309824	0.96060385754144
9.4185503612944	0.96059599003893
9.3978826959248	0.96058810476959
9.3773055364404	0.96058020314086
9.3568182896380	0.96057228654544
9.3364203674868	0.96056435636128
9.3161111870727	0.96055641395172
9.2958901705426	0.96054846066542
9.2757567450495	0.96054049783651
9.2557103426984	0.96053252678455
9.2357504004929	0.96052454881463
9.2158763602828	0.96051656521740
9.1960876687117	0.96050857726908
9.1763837771656	0.96050058623156
9.1567641417227	0.96049259335242
9.1372282231027	0.96048459986498
9.1177754866180	0.96047660698834
9.0984054021244	0.96046861592743
9.0791174439733	0.96046062787306
9.0599110909640	0.96045264400198
9.0407858262967	0.96044466547689
9.0217411375263	0.96043669344656
9.0027765165165	0.96042872904578
8.9838914593947	0.96042077339549
8.9650854665072	0.96041282760281
8.9463580423754	0.96040489276107
8.9277086956522	0.96039696994985
8.9091369390788	0.96038906023510
8.8906422894425	0.96038116466911
8.8722242675348	0.96037328429059
8.8538823981099	0.96036542012475
8.8356162098438	0.96035757318331
8.8174252352941	0.96034974446456
8.7993090108600	0.96034193495345
8.7812670767428	0.96033414562159
8.7632989769073	0.96032637742733
8.7454042590432	0.96031863131582
8.7275824745269	0.96031090821904
8.7098331783847	0.96030320905587
8.6921559292549	0.96029553473215
8.6745502893519	0.96028788614071
8.6570158244297	0.96028026416145
8.6395521037464	0.96027266966137
8.6221587000288	0.96026510349467
8.6048351894374	0.96025756650273
8.5875811515325	0.96025005951424
8.5703961692396	0.96024258334522
8.5532798288160	0.96023513879908
8.5362317198178	0.96022772666667
8.5192514350668	0.96022034772634
8.5023385706183	0.96021300274403
8.4854927257288	0.96020569247326
8.4687135028249	0.96019841765525
8.4520005074711	0.96019117901893
8.4353533483399	0.96018397728105
8.4187716371806	0.96017681314617
8.4022549887892	0.96016968730679
8.3858030209790	0.96016260044336
8.3694153545505	0.96015555322433
8.3530916132627	0.96014854630627
8.3368314238042	0.96014158033385
8.3206344157646	0.96013465593998
8.3045002216066	0.96012777374579
8.2884284766381	0.96012093436075
8.2724188189845	0.96011413838269
8.2564708895621	0.96010738639790
8.2405843320506	0.96010067898114
8.2247587928669	0.96009401669575
8.2089939211391	0.96008740009366
8.1932893686800	0.96008082971550
8.1776447899618	0.96007430609064
8.1620598420909	0.96006782973724
8.1465341847826	0.96006140116231
8.1310674803363	0.96005502086180
8.1156593936113	0.96004868932064
8.1003095920022	0.96004240701279
8.0850177454153	0.96003617440133
8.0697835262450	0.96002999193850
8.0546066093498	0.96002386006578
8.0394866720300	0.96001777921392
8.0244233940043	0.96001174980306
8.0094164573871	0.96000577224272
7.9944655466667	0.95999984693192
7.9795703486825	0.95999397425922
7.9647305526036	0.95998815460277
7.9499458499072	0.95998238833041
7.9352159343568	0.95997667579968
7.9205405019815	0.95997101735796
7.9059192510549	0.95996541334243
7.8913518820742	0.95995986408024
7.8768380977404	0.95995436988850
7.8623776029373	0.95994893107437
7.8479701047120	0.95994354793511
7.8336153122550	0.95993822075818
7.8193129368805	0.95993294982126
7.8050626920073	0.95992773539234
7.7908642931393	0.95992257772978
7.7767174578470	0.95991747708237
7.7626219057483	0.95991243368938
7.7485773584906	0.95990744778066
7.7345835397317	0.95990251957668
7.7206401751223	0.95989764928860
7.7067469922879	0.95989283711833
7.6929037208109	0.95988808325859
7.6791100922131	0.95988338789300
7.6653658399386	0.95987875119613
7.6516706993364	0.95987417333354
7.6380244076433	0.95986965446188
7.6244267039674	0.95986519472897
7.6108773292714	0.95986079427379
7.5973760263558	0.95985645322662
7.5839225398432	0.95985217170909
7.5705166161616	0.95984794983422
7.5571580035291	0.95984378770649
7.5438464519376	0.95983968542193
7.5305817131374	0.95983564306816
7.5173635406219	0.95983166072449
7.5041916896120	0.95982773846193
7.4910659170415	0.95982387634330
7.4779859815415	0.95982007442328
7.4649516434263	0.95981633274849
7.4519626646781	0.95981265135753
7.4390188089330	0.95980903028107
7.4261198414664	0.95980546954189
7.4132655291790	0.95980196915498
7.4004556405826	0.95979852912758
7.3876899457861	0.95979514945924
7.3749682164822	0.95979183014191
7.3622902259332	0.95978857116000
7.3496557489581	0.95978537249043
7.3370645619187	0.95978223410270
7.3245164427071	0.95977915595899
7.3120111707317	0.95977613801415
7.2995485269053	0.95977318021587
7.2871282936315	0.95977028250464
7.2747502547925	0.95976744481389
7.2624141957364	0.95976466707003
7.2501199032648	0.95976194919251
7.2378671656205	0.95975929109389
7.2256557724753	0.95975669267991
7.2134855149182	0.95975415384957
7.2013561854432	0.95975167449516
7.1892675779376	0.95974925450234
7.1772194876706	0.95974689375023
7.1652117112811	0.95974459211146
7.1532440467669	0.95974234945220
7.1413162934731	0.95974016563229
7.1294282520809	0.95973804050526
7.1175797245964	0.95973597391842
7.1057705143399	0.95973396571288
7.0940004259347	0.95973201572371
7.0822692652965	0.95973012377988
7.0705768396226	0.95972828970443
7.0589229573817	0.95972651331450
7.0473074283028	0.95972479442136
7.0357300633654	0.95972313283054
7.0241906747891	0.95972152834183
7.0126890760234	0.95971998074941
7.0012250817375	0.95971848984185
6.9897985078107	0.95971705540222
6.9784091713222	0.95971567720816
6.9670568905415	0.95971435503189
6.9557414849188	0.95971308864034
6.9444627750753	0.95971187779517
6.9332205827937	0.95971072225287
6.9220147310090	0.95970962176477
6.9108450437990	0.95970857607717
6.8997113463751	0.95970758493138
6.8886134650735	0.95970664806374
6.8775512273457	0.95970576520575
6.8665244617499	0.95970493608411
6.8555329979419	0.95970416042078
6.8445766666667	0.95970343793302
6.8336552997493	0.95970276833350
6.8227687300865	0.95970215133035
6.8119167916383	0.95970158662719
6.8010993194192	0.95970107392324
6.7903161494904	0.95970061291335
6.7795671189507	0.95970020328809
6.7688520659291	0.95969984473380
6.7581708295762	0.95969953693263
6.7475232500563	0.95969927956265
6.7369091685393	0.95969907229788
6.7263284271932	0.95969891480836
6.7157808691756	0.95969880676022
6.7052663386267	0.95969874781572
6.6947846806610	0.95969873763336
6.6843357413601	0.95969877586788
6.6739193677649	0.95969886217038
6.6635354078684	0.95969899618833
6.6531837106081	0.95969917756569
6.6428641258586	0.95969940594290
6.6325765044248	0.95969968095703
6.6223206980340	0.95970000224174
6.6120965593295	0.95970036942745
6.6019039418630	0.95970078214129
6.5917427000879	0.95970124000726
6.5816126893524	0.95970174264622
6.5715137658922	0.95970228967600
6.5614457868243	0.95970288071144
6.5514086101399	0.95970351536442
6.5414020946978	0.95970419324398
6.5314261002179	0.95970491395634
6.5214804872743	0.95970567710498
6.5115651172893	0.95970648229068
6.5016798525266	0.95970732911159
6.4918245560849	0.95970821716329
6.4819990918919	0.95970914603887
6.4722033246978	0.95971011532894
6.4624371200690	0.95971112462174
6.4527003443823	0.95971217350317
6.4429928648184	0.95971326155684
6.4333145493562	0.95971438836417
6.4236652667667	0.95971555350440
6.4140448866068	0.95971675655470
6.4044532792138	0.95971799709018
6.3948903156997	0.95971927468395
6.3853558679446	0.95972058890724
6.3758498085921	0.95972193932937
6.3663720110427	0.95972332551787
6.3569223494487	0.95972474703851
6.3475006987084	0.95972620345538
6.3381069344609	0.95972769433091
6.3287409330800	0.95972921922596
6.3194025716695	0.95973077769985
6.3100917280572	0.95973236931044
6.3008082807902	0.95973399361419
6.2915521091291	0.95973565016617
6.2823230930427	0.95973733852018
6.2731211132036	0.95973905822874
6.2639460509820	0.95974080884321
6.2547977884415	0.95974258991379
6.2456762083333	0.95974440098960
6.2365811940919	0.95974624161875
6.2275126298297	0.95974811134836
6.2184704003319	0.95975000972463
6.2094543910522	0.95975193629290
6.2004644881075	0.95975389059770
6.1915005782734	0.95975587218280
6.1825625489792	0.95975788059126
6.1736502883031	0.95975991536550
6.1647636849681	0.95976197604733
6.1559026283368	0.95976406217801
6.1470670084068	0.95976617329832
6.1382567158067	0.95976830894859
6.1294716417910	0.95977046866875
6.1207116782360	0.95977265199842
6.1119767176351	0.95977485847689
6.1032666530945	0.95977708764325
6.0945813783289	0.95977933903640
6.0859207876573	0.95978161219508
6.0772847759984	0.95978390665797
6.0686732388664	0.95978622196372
6.0600860723671	0.95978855765098
6.0515231731934	0.95979091325847
6.0429844386212	0.95979328832503
6.0344697665056	0.95979568238967
6.0259790552764	0.95979809499158
6.0175122039342	0.95980052567027
6.0090691120465	0.95980297396550
6.0006496797438	0.95980543941743
5.9922538077154	0.95980792156662
5.9838813972056	0.95981041995407
5.9755323500100	0.95981293412129
5.9672065684713	0.95981546361034
5.9589039554760	0.95981800796388
5.9506244144502	0.95982056672520
5.9423678493558	0.95982313943829
5.9341341646873	0.95982572564787
5.9259232654675	0.95982832489944
5.9177350572444	0.95983093673933
5.9095694460871	0.95983356071474
5.9014263385827	0.95983619637378
5.8933056418321	0.95983884326554
5.8852072634472	0.95984150094009
5.8771311115468	0.95984416894858
5.8690770947533	0.95984684684321
5.8610451221896	0.95984953417737
5.8530351034752	0.95985223050558
5.8450469487229	0.95985493538363
5.8370805685358	0.95985764836854
5.8291358740035	0.95986036901865
5.8212127766990	0.95986309689367
5.8133111886756	0.95986583155467
5.8054310224632	0.95986857256418
5.7975721910656	0.95987131948619
5.7897346079567	0.95987407188622
5.7819181870781	0.95987682933134
5.7741228428351	0.95987959139020
5.7663484900942	0.95988235763313
5.7585950441798	0.95988512763210
5.7508624208709	0.95988790096081
5.7431505363985	0.95989067719471
5.7354593074421	0.95989345591107
5.7277886511272	0.95989623668896
5.7201384850219	0.95989901910933
5.7125087271341	0.95990180275507
5.7048992959087	0.95990458721097
5.6973101102242	0.95990737206384
5.6897410893908	0.95991015690251
5.6821921531463	0.95991294131784
5.6746632216544	0.95991572490281
5.6671542155009	0.95991850725253
5.6596650556919	0.95992128796427
5.6521956636501	0.95992406663750
5.6447459612126	0.95992684287394
5.6373158706281	0.95992961627756
5.6299053145540	0.95993238645466
5.6225142160540	0.95993515301388
5.6151424985952	0.95993791556620
5.6077900860456	0.95994067372506
5.6004569026714	0.95994342710629
5.5931428731343	0.95994617532824
5.5858479224893	0.95994891801174
5.5785719761816	0.95995165478017
5.5713149600446	0.95995438525946
5.5640768002970	0.95995710907817
5.5568574235403	0.95995982586747
5.5496567567568	0.95996253526122
5.5424747273063	0.95996523689596
5.5353112629247	0.95996793041095
5.5281662917204	0.95997061544821
5.5210397421731	0.95997329165254
5.5139315431304	0.95997595867158
5.5068416238060	0.95997861615577
5.4997699137773	0.95998126375846
5.4927163429828	0.95998390113587
5.4856808417200	0.95998652794716
5.4786633406433	0.95998914385445
5.4716637707611	0.95999174852284
5.4646820634342	0.95999434162042
5.4577181503732	0.95999692281833
5.4507719636364	0.95999949179079
5.4438434356274	0.96000204821506
5.4369324990932	0.96000459177156
5.4300390871219	0.96000712214381
5.4231631331404	0.96000963901853
5.4163045709124	0.96001214208558
5.4094633345363	0.96001463103807
5.4026393584430	0.96001710557232
5.3958325773938	0.96001956538793
5.3890429264785	0.96002201018775
5.3822703411131	0.96002443967796
5.3755147570378	0.96002685356805
5.3687761103152	0.96002925157086
5.3620543373278	0.96003163340261
5.3553493747767	0.96003399878288
5.3486611596789	0.96003634743469
5.3419896293656	0.96003867908448
5.3353347214807	0.96004099346214
5.3286963739780	0.96004329030104
5.3220745251198	0.96004556933801
5.3154691134752	0.96004783031343
5.3088800779175	0.96005007297118
5.3023073576229	0.96005229705870
5.2957508920685	0.96005450232698
5.2892106210303	0.96005668853060
5.2826864845815	0.96005885542774
5.2761784230905	0.96006100278019
5.2696863772192	0.96006313035338
5.2632102879213	0.96006523791637
5.2567500964405	0.96006732524191
5.2503057443082	0.96006939210640
5.2438771733427	0.96007143828996
5.2374643256464	0.96007346357640
5.2310671436050	0.96007546775326
5.2246855698850	0.96007745061182
5.2183195474326	0.96007941194710
5.2119690194715	0.96008135155789
5.2056339295016	0.96008326924675
5.1993142212973	0.96008516482004
5.1930098389052	0.96008703808791
5.1867207266436	0.96008888886432
5.1804468290997	0.96009071696707
5.1741880911288	0.96009252221777
5.1679444578521	0.96009430444188
5.1617158746556	0.96009606346874
5.1555022871883	0.96009779913153
5.1493036413604	0.96009951126730
5.1431198833419	0.96010119971700
5.1369509595613	0.96010286432545
5.1307968167037	0.96010450494140
5.1246574017094	0.96010612141749
5.1185326617722	0.96010771361026
5.1124225443383	0.96010928138020
5.1063269971044	0.96011082459172
5.1002459680163	0.96011234311315
5.0941794052676	0.96011383681679
5.0881272572980	0.96011530557885
5.0820894727920	0.96011674927953
5.0760660006773	0.96011816780296
5.0700567901235	0.96011956103726
5.0640617905405	0.96012092887447
5.0580809515775	0.96012227121065
5.0521142231210	0.96012358794579
5.0461615552937	0.96012487898389
5.0402228984533	0.96012614423292
5.0342982031906	0.96012738360480
5.0283874203287	0.96012859701549
5.0224905009214	0.96012978438487
5.0166073962517	0.96013094563685
5.0107380578305	0.96013208069932
5.0048824373957	0.96013318950413
4.9990404869101	0.96013427198715
4.9932121585610	0.96013532808822
4.9873974047579	0.96013635775115
4.9815961781323	0.96013736092376
4.9758084315353	0.96013833755784
4.9700341180371	0.96013928760915
4.9642731909256	0.96014021103745
4.9585256037049	0.96014110780646
4.9527913100942	0.96014197788387
4.9470702640264	0.96014282124136
4.9413624196473	0.96014363785454
4.9356677313138	0.96014442770301
4.9299861535932	0.96014519077031
4.9243176412615	0.96014592704394
4.9186621493027	0.96014663651534
4.9130196329072	0.96014731917989
4.9073900474709	0.96014797503691
4.9017733485939	0.96014860408965
4.8961694920790	0.96014920634526
4.8905784339315	0.96014978181482
4.8850001303569	0.96015033051332
4.8794345377604	0.96015085245964
4.8738816127459	0.96015134767655
4.8683413121143	0.96015181619069
4.8628135928629	0.96015225803260
4.8572984121841	0.96015267323664
4.8517957274640	0.96015306184108
4.8463054962819	0.96015342388797
4.8408276764088	0.96015375942323
4.8353622258065	0.96015406849659
