#Parameters = {thARC=0.6; nARC=1.5; thsub=1; p=1; nSub=1.5}
#"Wavelength / um"	"T (124) [Real Part]"
#---------------------------------------
14.989622900000	0.96000015063294
14.937342202292	0.96000015041020
14.885424925521	0.96000015017585
14.833867293419	0.96000014992907
14.782665581854	0.96000014966905
14.731816117936	0.96000014939500
14.681315279138	0.96000014910615
14.631159492435	0.96000014880174
14.581345233463	0.96000014848103
14.531869025691	0.96000014814331
14.482727439614	0.96000014778788
14.433917091960	0.96000014741405
14.385434644914	0.96000014702116
14.337276805356	0.96000014660856
14.289440324118	0.96000014617563
14.241921995249	0.96000014572175
14.194718655303	0.96000014524633
14.147827182633	0.96000014474880
14.101244496707	0.96000014422859
14.054967557431	0.96000014368517
14.008993364486	0.96000014311801
13.963318956684	0.96000014252660
13.917941411328	0.96000014191046
13.872857843591	0.96000014126912
13.828065405904	0.96000014060211
13.783561287356	0.96000013990900
13.739342713107	0.96000013918936
13.695406943810	0.96000013844280
13.651751275046	0.96000013766892
13.608373036768	0.96000013686735
13.565269592760	0.96000013603774
13.522438340099	0.96000013517974
13.479876708633	0.96000013429304
13.437582160466	0.96000013337732
13.395552189455	0.96000013243230
13.353784320713	0.96000013145769
13.312276110124	0.96000013045325
13.271025143869	0.96000012941872
13.230029037952	0.96000012835388
13.189285437747	0.96000012725851
13.148792017544	0.96000012613243
13.108546480105	0.96000012497544
13.068546556234	0.96000012378738
13.028790004346	0.96000012256810
12.989274610052	0.96000012131747
12.949998185745	0.96000012003535
12.910958570198	0.96000011872165
12.872153628167	0.96000011737628
12.833581250000	0.96000011599915
12.795239351259	0.96000011459021
12.757125872340	0.96000011314940
12.719238778108	0.96000011167670
12.681576057530	0.96000011017207
12.644135723323	0.96000010863553
12.606915811606	0.96000010706707
12.569914381551	0.96000010546672
12.533129515050	0.96000010383451
12.496559316382	0.96000010217050
12.460201911887	0.96000010047474
12.424055449648	0.96000009874732
12.388118099174	0.96000009698832
12.352388051092	0.96000009519785
12.316863516845	0.96000009337603
12.281542728390	0.96000009152299
12.246423937908	0.96000008963885
12.211505417515	0.96000008772380
12.176785458976	0.96000008577798
12.142262373431	0.96000008380159
12.107934491115	0.96000008179481
12.073800161095	0.96000007975785
12.039857751004	0.96000007769093
12.006105646776	0.96000007559428
11.972542252396	0.96000007346814
11.939165989646	0.96000007131276
11.905975297855	0.96000006912841
11.872968633663	0.96000006691537
11.840144470774	0.96000006467392
11.807501299724	0.96000006240437
11.775037627651	0.96000006010703
11.742751978065	0.96000005778222
11.710642890625	0.96000005543027
11.678708920919	0.96000005305153
11.646948640249	0.96000005064636
11.615360635413	0.96000004821511
11.583943508501	0.96000004575818
11.552695876686	0.96000004327594
11.521616372022	0.96000004076879
11.490703641242	0.96000003823715
11.459956345566	0.96000003568142
11.429373160503	0.96000003310205
11.398952775665	0.96000003049946
11.368693894577	0.96000002787410
11.338595234493	0.96000002522644
11.308655526217	0.96000002255693
11.278873513920	0.96000001986606
11.249247954972	0.96000001715432
11.219777619760	0.96000001442219
11.190461291527	0.96000001167018
11.161297766195	0.96000000889880
11.132285852209	0.96000000610859
11.103424370370	0.96000000330005
11.074712153676	0.96000000047375
11.046148047163	0.95999999763021
11.017730907755	0.95999999477001
10.989459604106	0.95999999189369
10.961333016453	0.95999998900185
10.933350036470	0.95999998609504
10.905509567115	0.95999998317388
10.877810522496	0.95999998023893
10.850251827723	0.95999997729083
10.822832418773	0.95999997433016
10.795551242348	0.95999997135755
10.768407255747	0.95999996837363
10.741399426729	0.95999996537902
10.714526733381	0.95999996237438
10.687788163993	0.95999995936033
10.661182716927	0.95999995633754
10.634709400497	0.95999995330667
10.608367232838	0.95999995026837
10.582155241793	0.95999994722333
10.556072464789	0.95999994417222
10.530117948718	0.95999994111573
10.504290749825	0.95999993805454
10.478589933590	0.95999993498935
10.453014574616	0.95999993192086
10.427563756522	0.95999992884979
10.402236571825	0.95999992577684
10.377032121841	0.95999992270273
10.351949516575	0.95999991962819
10.326987874612	0.95999991655394
10.302146323024	0.95999991348072
10.277423997257	0.95999991040927
10.252820041040	0.95999990734032
10.228333606278	0.95999990427463
10.203963852961	0.95999990121295
10.179709949066	0.95999989815604
10.155571070461	0.95999989510465
10.131546400811	0.95999989205956
10.107635131490	0.95999988902152
10.083836461487	0.95999988599131
10.060149597315	0.95999988296972
10.036573752929	0.95999987995751
10.013108149633	0.95999987695547
9.9897520159947	0.95999987396439
9.9665045877660	0.95999987098506
9.9433651077944	0.95999986801828
9.9203328259431	0.95999986506482
9.8974069990096	0.95999986212551
9.8745868906456	0.95999985920113
9.8518717712783	0.95999985629250
9.8292609180328	0.95999985340041
9.8067536146549	0.95999985052568
9.7843491514360	0.95999984766912
9.7620468251384	0.95999984483154
9.7398459389214	0.95999984201376
9.7177458022690	0.95999983921659
9.6957457309185	0.95999983644086
9.6738450467893	0.95999983368738
9.6520430779137	0.95999983095698
9.6303391583681	0.95999982825047
9.6087326282051	0.95999982556870
9.5872228333866	0.95999982291247
9.5658091257179	0.95999982028262
9.5444908627826	0.95999981767997
9.5232674078780	0.95999981510536
9.5021381299525	0.95999981255961
9.4811024035421	0.95999981004356
9.4601596087094	0.95999980755803
9.4393091309824	0.95999980510385
9.4185503612944	0.95999980268186
9.3978826959248	0.95999980029288
9.3773055364404	0.95999979793774
9.3568182896380	0.95999979561729
9.3364203674868	0.95999979333234
9.3161111870727	0.95999979108372
9.2958901705426	0.95999978887227
9.2757567450495	0.95999978669882
9.2557103426984	0.95999978456419
9.2357504004929	0.95999978246921
9.2158763602828	0.95999978041470
9.1960876687117	0.95999977840150
9.1763837771656	0.95999977643042
9.1567641417227	0.95999977450228
9.1372282231027	0.95999977261792
9.1177754866180	0.95999977077814
9.0984054021244	0.95999976898377
9.0791174439733	0.95999976723561
9.0599110909640	0.95999976553450
9.0407858262967	0.95999976388122
9.0217411375263	0.95999976227661
9.0027765165165	0.95999976072146
8.9838914593947	0.95999975921658
8.9650854665072	0.95999975776278
8.9463580423754	0.95999975636085
8.9277086956522	0.95999975501158
8.9091369390788	0.95999975371579
8.8906422894425	0.95999975247425
8.8722242675348	0.95999975128776
8.8538823981099	0.95999975015710
8.8356162098438	0.95999974908306
8.8174252352941	0.95999974806641
8.7993090108600	0.95999974710793
8.7812670767428	0.95999974620839
8.7632989769073	0.95999974536857
8.7454042590432	0.95999974458922
8.7275824745269	0.95999974387111
8.7098331783847	0.95999974321500
8.6921559292549	0.95999974262163
8.6745502893519	0.95999974209176
8.6570158244297	0.95999974162613
8.6395521037464	0.95999974122548
8.6221587000288	0.95999974089055
8.6048351894374	0.95999974062206
8.5875811515325	0.95999974042075
8.5703961692396	0.95999974028734
8.5532798288160	0.95999974022254
8.5362317198178	0.95999974022707
8.5192514350668	0.95999974030163
8.5023385706183	0.95999974044692
8.4854927257288	0.95999974066364
8.4687135028249	0.95999974095248
8.4520005074711	0.95999974131413
8.4353533483399	0.95999974174927
8.4187716371806	0.95999974225856
8.4022549887892	0.95999974284269
8.3858030209790	0.95999974350231
8.3694153545505	0.95999974423807
8.3530916132627	0.95999974505064
8.3368314238042	0.95999974594065
8.3206344157646	0.95999974690874
8.3045002216066	0.95999974795555
8.2884284766381	0.95999974908170
8.2724188189845	0.95999975028781
8.2564708895621	0.95999975157449
8.2405843320506	0.95999975294234
8.2247587928669	0.95999975439198
8.2089939211391	0.95999975592398
8.1932893686800	0.95999975753894
8.1776447899618	0.95999975923744
8.1620598420909	0.95999976102004
8.1465341847826	0.95999976288731
8.1310674803363	0.95999976483980
8.1156593936113	0.95999976687807
8.1003095920022	0.95999976900266
8.0850177454153	0.95999977121410
8.0697835262450	0.95999977351292
8.0546066093498	0.95999977589964
8.0394866720300	0.95999977837478
8.0244233940043	0.95999978093882
8.0094164573871	0.95999978359228
7.9944655466667	0.95999978633563
7.9795703486825	0.95999978916936
7.9647305526036	0.95999979209394
7.9499458499072	0.95999979510984
7.9352159343568	0.95999979821750
7.9205405019815	0.95999980141738
7.9059192510549	0.95999980470991
7.8913518820742	0.95999980809552
7.8768380977404	0.95999981157464
7.8623776029373	0.95999981514768
7.8479701047120	0.95999981881504
7.8336153122550	0.95999982257711
7.8193129368805	0.95999982643429
7.8050626920073	0.95999983038695
7.7908642931393	0.95999983443545
7.7767174578470	0.95999983858016
7.7626219057483	0.95999984282143
7.7485773584906	0.95999984715960
7.7345835397317	0.95999985159500
7.7206401751223	0.95999985612795
7.7067469922879	0.95999986075877
7.6929037208109	0.95999986548776
7.6791100922131	0.95999987031521
7.6653658399386	0.95999987524140
7.6516706993364	0.95999988026662
7.6380244076433	0.95999988539113
7.6244267039674	0.95999989061518
7.6108773292714	0.95999989593901
7.5973760263558	0.95999990136287
7.5839225398432	0.95999990688699
7.5705166161616	0.95999991251156
7.5571580035291	0.95999991823681
7.5438464519376	0.95999992406293
7.5305817131374	0.95999992999010
7.5173635406219	0.95999993601850
7.5041916896120	0.95999994214829
7.4910659170415	0.95999994837963
7.4779859815415	0.95999995471267
7.4649516434263	0.95999996114753
7.4519626646781	0.95999996768435
7.4390188089330	0.95999997432323
7.4261198414664	0.95999998106427
7.4132655291790	0.95999998790758
7.4004556405826	0.95999999485323
7.3876899457861	0.96000000190130
7.3749682164822	0.96000000905184
7.3622902259332	0.96000001630490
7.3496557489581	0.96000002366052
7.3370645619187	0.96000003111874
7.3245164427071	0.96000003867956
7.3120111707317	0.96000004634300
7.2995485269053	0.96000005410905
7.2871282936315	0.96000006197769
7.2747502547925	0.96000006994890
7.2624141957364	0.96000007802264
7.2501199032648	0.96000008619887
7.2378671656205	0.96000009447752
7.2256557724753	0.96000010285852
7.2134855149182	0.96000011134179
7.2013561854432	0.96000011992724
7.1892675779376	0.96000012861476
7.1772194876706	0.96000013740424
7.1652117112811	0.96000014629556
7.1532440467669	0.96000015528857
7.1413162934731	0.96000016438312
7.1294282520809	0.96000017357906
7.1175797245964	0.96000018287621
7.1057705143399	0.96000019227439
7.0940004259347	0.96000020177341
7.0822692652965	0.96000021137306
7.0705768396226	0.96000022107312
7.0589229573817	0.96000023087336
7.0473074283028	0.96000024077355
7.0357300633654	0.96000025077343
7.0241906747891	0.96000026087274
7.0126890760234	0.96000027107120
7.0012250817375	0.96000028136853
6.9897985078107	0.96000029176443
6.9784091713222	0.96000030225859
6.9670568905415	0.96000031285069
6.9557414849188	0.96000032354040
6.9444627750753	0.96000033432737
6.9332205827937	0.96000034521125
6.9220147310090	0.96000035619167
6.9108450437990	0.96000036726826
6.8997113463751	0.96000037844062
6.8886134650735	0.96000038970835
6.8775512273457	0.96000040107104
6.8665244617499	0.96000041252826
6.8555329979419	0.96000042407958
6.8445766666667	0.96000043572455
6.8336552997493	0.96000044746271
6.8227687300865	0.96000045929358
6.8119167916383	0.96000047121669
6.8010993194192	0.96000048323154
6.7903161494904	0.96000049533763
6.7795671189507	0.96000050753443
6.7688520659291	0.96000051982142
6.7581708295762	0.96000053219806
6.7475232500563	0.96000054466380
6.7369091685393	0.96000055721806
6.7263284271932	0.96000056986029
6.7157808691756	0.96000058258988
6.7052663386267	0.96000059540625
6.6947846806610	0.96000060830878
6.6843357413601	0.96000062129685
6.6739193677649	0.96000063436983
6.6635354078684	0.96000064752707
6.6531837106081	0.96000066076793
6.6428641258586	0.96000067409173
6.6325765044248	0.96000068749779
6.6223206980340	0.96000070098543
6.6120965593295	0.96000071455395
6.6019039418630	0.96000072820263
6.5917427000879	0.96000074193075
6.5816126893524	0.96000075573757
6.5715137658922	0.96000076962236
6.5614457868243	0.96000078358435
6.5514086101399	0.96000079762278
6.5414020946978	0.96000081173686
6.5314261002179	0.96000082592581
6.5214804872743	0.96000084018882
6.5115651172893	0.96000085452509
6.5016798525266	0.96000086893379
6.4918245560849	0.96000088341408
6.4819990918919	0.96000089796513
6.4722033246978	0.96000091258607
6.4624371200690	0.96000092727603
6.4527003443823	0.96000094203415
6.4429928648184	0.96000095685953
6.4333145493562	0.96000097175127
6.4236652667667	0.96000098670847
6.4140448866068	0.96000100173020
6.4044532792138	0.96000101681553
6.3948903156997	0.96000103196352
6.3853558679446	0.96000104717322
6.3758498085921	0.96000106244366
6.3663720110427	0.96000107777388
6.3569223494487	0.96000109316288
6.3475006987084	0.96000110860969
6.3381069344609	0.96000112411328
6.3287409330800	0.96000113967265
6.3194025716695	0.96000115528678
6.3100917280572	0.96000117095463
6.3008082807902	0.96000118667515
6.2915521091291	0.96000120244729
6.2823230930427	0.96000121827000
6.2731211132036	0.96000123414218
6.2639460509820	0.96000125006276
6.2547977884415	0.96000126603065
6.2456762083333	0.96000128204475
6.2365811940919	0.96000129810393
6.2275126298297	0.96000131420708
6.2184704003319	0.96000133035306
6.2094543910522	0.96000134654074
6.2004644881075	0.96000136276896
6.1915005782734	0.96000137903657
6.1825625489792	0.96000139534239
6.1736502883031	0.96000141168525
6.1647636849681	0.96000142806395
6.1559026283368	0.96000144447731
6.1470670084068	0.96000146092411
6.1382567158067	0.96000147740315
6.1294716417910	0.96000149391319
6.1207116782360	0.96000151045302
6.1119767176351	0.96000152702138
6.1032666530945	0.96000154361703
6.0945813783289	0.96000156023871
6.0859207876573	0.96000157688515
6.0772847759984	0.96000159355509
6.0686732388664	0.96000161024723
6.0600860723671	0.96000162696030
6.0515231731934	0.96000164369298
6.0429844386212	0.96000166044398
6.0344697665056	0.96000167721198
6.0259790552764	0.96000169399565
6.0175122039342	0.96000171079367
6.0090691120465	0.96000172760470
6.0006496797438	0.96000174442739
5.9922538077154	0.96000176126039
5.9838813972056	0.96000177810235
5.9755323500100	0.96000179495188
5.9672065684713	0.96000181180763
5.9589039554760	0.96000182866821
5.9506244144502	0.96000184553222
5.9423678493558	0.96000186239828
5.9341341646873	0.96000187926498
5.9259232654675	0.96000189613091
5.9177350572444	0.96000191299466
5.9095694460871	0.96000192985480
5.9014263385827	0.96000194670992
5.8933056418321	0.96000196355856
5.8852072634472	0.96000198039929
5.8771311115468	0.96000199723067
5.8690770947533	0.96000201405124
5.8610451221896	0.96000203085954
5.8530351034752	0.96000204765410
5.8450469487229	0.96000206443347
5.8370805685358	0.96000208119615
5.8291358740035	0.96000209794068
5.8212127766990	0.96000211466555
5.8133111886756	0.96000213136929
5.8054310224632	0.96000214805039
5.7975721910656	0.96000216470735
5.7897346079567	0.96000218133867
5.7819181870781	0.96000219794283
5.7741228428351	0.96000221451832
5.7663484900942	0.96000223106361
5.7585950441798	0.96000224757718
5.7508624208709	0.96000226405751
5.7431505363985	0.96000228050304
5.7354593074421	0.96000229691226
5.7277886511272	0.96000231328362
5.7201384850219	0.96000232961556
5.7125087271341	0.96000234590655
5.7048992959087	0.96000236215502
5.6973101102242	0.96000237835942
5.6897410893908	0.96000239451820
5.6821921531463	0.96000241062979
5.6746632216544	0.96000242669261
5.6671542155009	0.96000244270512
5.6596650556919	0.96000245866572
5.6521956636501	0.96000247457285
5.6447459612126	0.96000249042493
5.6373158706281	0.96000250622037
5.6299053145540	0.96000252195761
5.6225142160540	0.96000253763505
5.6151424985952	0.96000255325111
5.6077900860456	0.96000256880419
5.6004569026714	0.96000258429272
5.5931428731343	0.96000259971509
5.5858479224893	0.96000261506972
5.5785719761816	0.96000263035501
5.5713149600446	0.96000264556937
5.5640768002970	0.96000266071119
5.5568574235403	0.96000267577888
5.5496567567568	0.96000269077085
5.5424747273063	0.96000270568549
5.5353112629247	0.96000272052120
5.5281662917204	0.96000273527639
5.5210397421731	0.96000274994945
5.5139315431304	0.96000276453878
5.5068416238060	0.96000277904278
5.4997699137773	0.96000279345986
5.4927163429828	0.96000280778841
5.4856808417200	0.96000282202683
5.4786633406433	0.96000283617353
5.4716637707611	0.96000285022690
5.4646820634342	0.96000286418536
5.4577181503732	0.96000287804730
5.4507719636364	0.96000289181113
5.4438434356274	0.96000290547525
5.4369324990932	0.96000291903808
5.4300390871219	0.96000293249803
5.4231631331404	0.96000294585350
5.4163045709124	0.96000295910291
5.4094633345363	0.96000297224468
5.4026393584430	0.96000298527723
5.3958325773938	0.96000299819897
5.3890429264785	0.96000301100833
5.3822703411131	0.96000302370374
5.3755147570378	0.96000303628362
5.3687761103152	0.96000304874641
5.3620543373278	0.96000306109054
5.3553493747767	0.96000307331445
5.3486611596789	0.96000308541659
5.3419896293656	0.96000309739539
5.3353347214807	0.96000310924932
5.3286963739780	0.96000312097683
5.3220745251198	0.96000313257636
5.3154691134752	0.96000314404640
5.3088800779175	0.96000315538540
5.3023073576229	0.96000316659183
5.2957508920685	0.96000317766418
5.2892106210303	0.96000318860092
5.2826864845815	0.96000319940054
5.2761784230905	0.96000321006154
5.2696863772192	0.96000322058242
5.2632102879213	0.96000323096167
5.2567500964405	0.96000324119781
5.2503057443082	0.96000325128935
5.2438771733427	0.96000326123482
5.2374643256464	0.96000327103274
5.2310671436050	0.96000328068165
5.2246855698850	0.96000329018010
5.2183195474326	0.96000329952662
5.2119690194715	0.96000330871978
5.2056339295016	0.96000331775814
5.1993142212973	0.96000332664027
5.1930098389052	0.96000333536475
5.1867207266436	0.96000334393017
5.1804468290997	0.96000335233511
5.1741880911288	0.96000336057818
5.1679444578521	0.96000336865799
5.1617158746556	0.96000337657317
5.1555022871883	0.96000338432233
5.1493036413604	0.96000339190412
5.1431198833419	0.96000339931717
5.1369509595613	0.96000340656015
5.1307968167037	0.96000341363172
5.1246574017094	0.96000342053056
5.1185326617722	0.96000342725533
5.1124225443383	0.96000343380475
5.1063269971044	0.96000344017751
5.1002459680163	0.96000344637233
5.0941794052676	0.96000345238792
5.0881272572980	0.96000345822304
5.0820894727920	0.96000346387641
5.0760660006773	0.96000346934680
5.0700567901235	0.96000347463298
5.0640617905405	0.96000347973372
5.0580809515775	0.96000348464782
5.0521142231210	0.96000348937407
5.0461615552937	0.96000349391130
5.0402228984533	0.96000349825833
5.0342982031906	0.96000350241399
5.0283874203287	0.96000350637715
5.0224905009214	0.96000351014666
5.0166073962517	0.96000351372139
5.0107380578305	0.96000351710025
5.0048824373957	0.96000352028214
4.9990404869101	0.96000352326596
4.9932121585610	0.96000352605065
4.9873974047579	0.96000352863516
4.9815961781323	0.96000353101844
4.9758084315353	0.96000353319946
4.9700341180371	0.96000353517722
4.9642731909256	0.96000353695070
4.9585256037049	0.96000353851894
4.9527913100942	0.96000353988095
4.9470702640264	0.96000354103578
4.9413624196473	0.96000354198250
4.9356677313138	0.96000354272018
4.9299861535932	0.96000354324791
4.9243176412615	0.96000354356481
4.9186621493027	0.96000354366999
4.9130196329072	0.96000354356260
4.9073900474709	0.96000354324179
4.9017733485939	0.96000354270673
4.8961694920790	0.96000354195662
4.8905784339315	0.96000354099066
4.8850001303569	0.96000353980809
4.8794345377604	0.96000353840813
4.8738816127459	0.96000353679005
4.8683413121143	0.96000353495312
4.8628135928629	0.96000353289665
4.8572984121841	0.96000353061993
4.8517957274640	0.96000352812232
4.8463054962819	0.96000352540315
4.8408276764088	0.96000352246179
4.8353622258065	0.96000351929764
