#Parameters = {thARC=0.4; nARC=2; thsub=1; p=1; nSub=1.5}
#"Wavelength / um"	"T (135) [Real Part]"
#---------------------------------------
14.989622900000	0.93865304351029
14.937342202292	0.93860550413022
14.885424925521	0.93855608690804
14.833867293419	0.93850480388255
14.782665581854	0.93845166709239
14.731816117936	0.93839668857533
14.681315279138	0.93833988036755
14.631159492435	0.93828125450294
14.581345233463	0.93822082301241
14.531869025691	0.93815859792323
14.482727439614	0.93809459125828
14.433917091960	0.93802881503544
14.385434644914	0.93796128126685
14.337276805356	0.93789200195829
14.289440324118	0.93782098910848
14.241921995249	0.93774825470844
14.194718655303	0.93767381074081
14.147827182633	0.93759766917923
14.101244496707	0.93751984198766
14.054967557431	0.93744034111975
14.008993364486	0.93735917851822
13.963318956684	0.93727636611420
13.917941411328	0.93719191582663
13.872857843591	0.93710583956160
13.828065405904	0.93701814921179
13.783561287356	0.93692885665581
13.739342713107	0.93683797375760
13.695406943810	0.93674551236585
13.651751275046	0.93665148431339
13.608373036768	0.93655590141661
13.565269592760	0.93645877547484
13.522438340099	0.93636011826983
13.479876708633	0.93625994156512
13.437582160466	0.93615825710549
13.395552189455	0.93605507661640
13.353784320713	0.93595041180343
13.312276110124	0.93584427435171
13.271025143869	0.93573667592541
13.230029037952	0.93562762816715
13.189285437747	0.93551714269749
13.148792017544	0.93540523111440
13.108546480105	0.93529190499272
13.068546556234	0.93517717588364
13.028790004346	0.93506105531419
12.989274610052	0.93494355478674
12.949998185745	0.93482468577846
12.910958570198	0.93470445974087
12.872153628167	0.93458288809931
12.833581250000	0.93445998225244
12.795239351259	0.93433575357182
12.757125872340	0.93421021340134
12.719238778108	0.93408337305684
12.681576057530	0.93395524382559
12.644135723323	0.93382583696584
12.606915811606	0.93369516370635
12.569914381551	0.93356323524597
12.533129515050	0.93343006275319
12.496559316382	0.93329565736567
12.460201911887	0.93316003018985
12.424055449648	0.93302319230049
12.388118099174	0.93288515474024
12.352388051092	0.93274592851928
12.316863516845	0.93260552461482
12.281542728390	0.93246395397080
12.246423937908	0.93232122749737
12.211505417515	0.93217735607062
12.176785458976	0.93203235053207
12.142262373431	0.93188622168838
12.107934491115	0.93173898031093
12.073800161095	0.93159063713544
12.039857751004	0.93144120286162
12.006105646776	0.93129068815279
11.972542252396	0.93113910363556
11.939165989646	0.93098645989943
11.905975297855	0.93083276749646
11.872968633663	0.93067803694096
11.840144470774	0.93052227870912
11.807501299724	0.93036550323867
11.775037627651	0.93020772092860
11.742751978065	0.93004894213881
11.710642890625	0.92988917718978
11.678708920919	0.92972843636232
11.646948640249	0.92956672989720
11.615360635413	0.92940406799489
11.583943508501	0.92924046081524
11.552695876686	0.92907591847725
11.521616372022	0.92891045105870
11.490703641242	0.92874406859595
11.459956345566	0.92857678108362
11.429373160503	0.92840859847437
11.398952775665	0.92823953067856
11.368693894577	0.92806958756408
11.338595234493	0.92789877895604
11.308655526217	0.92772711463656
11.278873513920	0.92755460434449
11.249247954972	0.92738125777522
11.219777619760	0.92720708458040
11.190461291527	0.92703209436775
11.161297766195	0.92685629670082
11.132285852209	0.92667970109878
11.103424370370	0.92650231703622
11.074712153676	0.92632415394290
11.046148047163	0.92614522120360
11.017730907755	0.92596552815792
10.989459604106	0.92578508410002
10.961333016453	0.92560389827853
10.933350036470	0.92542197989629
10.905509567115	0.92523933811022
10.877810522496	0.92505598203112
10.850251827723	0.92487192072350
10.822832418773	0.92468716320545
10.795551242348	0.92450171844844
10.768407255747	0.92431559537719
10.741399426729	0.92412880286952
10.714526733381	0.92394134975618
10.687788163993	0.92375324482074
10.661182716927	0.92356449679945
10.634709400497	0.92337511438108
10.608367232838	0.92318510620684
10.582155241793	0.92299448087020
10.556072464789	0.92280324691683
10.530117948718	0.92261141284444
10.504290749825	0.92241898710269
10.478589933590	0.92222597809309
10.453014574616	0.92203239416890
10.427563756522	0.92183824363501
10.402236571825	0.92164353474786
10.377032121841	0.92144827571539
10.351949516575	0.92125247469689
10.326987874612	0.92105613980295
10.302146323024	0.92085927909541
10.277423997257	0.92066190058724
10.252820041040	0.92046401224252
10.228333606278	0.92026562197634
10.203963852961	0.92006673765475
10.179709949066	0.91986736709473
10.155571070461	0.91966751806409
10.131546400811	0.91946719828147
10.107635131490	0.91926641541626
10.083836461487	0.91906517708860
10.060149597315	0.91886349086929
10.036573752929	0.91866136427981
10.013108149633	0.91845880479227
9.9897520159947	0.91825581982937
9.9665045877660	0.91805241676440
9.9433651077944	0.91784860292122
9.9203328259431	0.91764438557423
9.8974069990096	0.91743977194840
9.8745868906456	0.91723476921921
9.8518717712783	0.91702938451268
9.8292609180328	0.91682362490536
9.8067536146549	0.91661749742435
9.7843491514360	0.91641100904729
9.7620468251384	0.91620416670236
9.7398459389214	0.91599697726833
9.7177458022690	0.91578944757456
9.6957457309185	0.91558158440100
9.6738450467893	0.91537339447825
9.6520430779137	0.91516488448756
9.6303391583681	0.91495606106088
9.6087326282051	0.91474693078088
9.5872228333866	0.91453750018100
9.5658091257179	0.91432777574547
9.5444908627826	0.91411776390938
9.5232674078780	0.91390747105871
9.5021381299525	0.91369690353038
9.4811024035421	0.91348606761231
9.4601596087094	0.91327496954347
9.4393091309824	0.91306361551394
9.4185503612944	0.91285201166497
9.3978826959248	0.91264016408904
9.3773055364404	0.91242807882995
9.3568182896380	0.91221576188287
9.3364203674868	0.91200321919439
9.3161111870727	0.91179045666266
9.2958901705426	0.91157748013742
9.2757567450495	0.91136429542007
9.2557103426984	0.91115090826380
9.2357504004929	0.91093732437364
9.2158763602828	0.91072354940658
9.1960876687117	0.91050958897163
9.1763837771656	0.91029544862992
9.1567641417227	0.91008113389483
9.1372282231027	0.90986665023204
9.1177754866180	0.90965200305967
9.0984054021244	0.90943719774837
9.0791174439733	0.90922223962142
9.0599110909640	0.90900713395487
9.0407858262967	0.90879188597761
9.0217411375263	0.90857650087150
9.0027765165165	0.90836098377150
8.9838914593947	0.90814533976578
8.9650854665072	0.90792957389582
8.9463580423754	0.90771369115659
8.9277086956522	0.90749769649659
8.9091369390788	0.90728159481806
8.8906422894425	0.90706539097707
8.8722242675348	0.90684908978363
8.8538823981099	0.90663269600188
8.8356162098438	0.90641621435019
8.8174252352941	0.90619964950129
8.7993090108600	0.90598300608243
8.7812670767428	0.90576628867553
8.7632989769073	0.90554950181729
8.7454042590432	0.90533264999936
8.7275824745269	0.90511573766849
8.7098331783847	0.90489876922667
8.6921559292549	0.90468174903128
8.6745502893519	0.90446468139525
8.6570158244297	0.90424757058720
8.6395521037464	0.90403042083164
8.6221587000288	0.90381323630907
8.6048351894374	0.90359602115617
8.5875811515325	0.90337877946596
8.5703961692396	0.90316151528799
8.5532798288160	0.90294423262844
8.5362317198178	0.90272693545034
8.5192514350668	0.90250962767374
8.5023385706183	0.90229231317584
8.4854927257288	0.90207499579119
8.4687135028249	0.90185767931188
8.4520005074711	0.90164036748766
8.4353533483399	0.90142306402617
8.4187716371806	0.90120577259310
8.4022549887892	0.90098849681235
8.3858030209790	0.90077124026624
8.3694153545505	0.90055400649567
8.3530916132627	0.90033679900030
8.3368314238042	0.90011962123876
8.3206344157646	0.89990247662882
8.3045002216066	0.89968536854756
8.2884284766381	0.89946830033161
8.2724188189845	0.89925127527727
8.2564708895621	0.89903429664075
8.2405843320506	0.89881736763834
8.2247587928669	0.89860049144662
8.2089939211391	0.89838367120265
8.1932893686800	0.89816691000413
8.1776447899618	0.89795021090965
8.1620598420909	0.89773357693886
8.1465341847826	0.89751701107267
8.1310674803363	0.89730051625345
8.1156593936113	0.89708409538523
8.1003095920022	0.89686775133391
8.0850177454153	0.89665148692744
8.0697835262450	0.89643530495605
8.0546066093498	0.89621920817244
8.0394866720300	0.89600319929200
8.0244233940043	0.89578728099298
8.0094164573871	0.89557145591675
7.9944655466667	0.89535572666795
7.9795703486825	0.89514009581476
7.9647305526036	0.89492456588904
7.9499458499072	0.89470913938661
7.9352159343568	0.89449381876741
7.9205405019815	0.89427860645574
7.9059192510549	0.89406350484046
7.8913518820742	0.89384851627520
7.8768380977404	0.89363364307859
7.8623776029373	0.89341888753446
7.8479701047120	0.89320425189205
7.8336153122550	0.89298973836626
7.8193129368805	0.89277534913781
7.8050626920073	0.89256108635351
7.7908642931393	0.89234695212646
7.7767174578470	0.89213294853625
7.7626219057483	0.89191907762921
7.7485773584906	0.89170534141859
7.7345835397317	0.89149174188482
7.7206401751223	0.89127828097572
7.7067469922879	0.89106496060669
7.6929037208109	0.89085178266097
7.6791100922131	0.89063874898986
7.6653658399386	0.89042586141289
7.6516706993364	0.89021312171812
7.6380244076433	0.89000053166230
7.6244267039674	0.88978809297112
7.6108773292714	0.88957580733945
7.5973760263558	0.88936367643153
7.5839225398432	0.88915170188120
7.5705166161616	0.88893988529214
7.5571580035291	0.88872822823810
7.5438464519376	0.88851673226310
7.5305817131374	0.88830539888168
7.5173635406219	0.88809422957909
7.5041916896120	0.88788322581158
7.4910659170415	0.88767238900656
7.4779859815415	0.88746172056285
7.4649516434263	0.88725122185092
7.4519626646781	0.88704089421309
7.4390188089330	0.88683073896381
7.4261198414664	0.88662075738981
7.4132655291790	0.88641095075037
7.4004556405826	0.88620132027758
7.3876899457861	0.88599186717649
7.3749682164822	0.88578259262539
7.3622902259332	0.88557349777604
7.3496557489581	0.88536458375386
7.3370645619187	0.88515585165821
7.3245164427071	0.88494730256257
7.3120111707317	0.88473893751478
7.2995485269053	0.88453075753728
7.2871282936315	0.88432276362734
7.2747502547925	0.88411495675727
7.2624141957364	0.88390733787465
7.2501199032648	0.88369990790258
7.2378671656205	0.88349266773987
7.2256557724753	0.88328561826132
7.2134855149182	0.88307876031787
7.2013561854432	0.88287209473692
7.1892675779376	0.88266562232247
7.1772194876706	0.88245934385541
7.1652117112811	0.88225326009372
7.1532440467669	0.88204737177269
7.1413162934731	0.88184167960516
7.1294282520809	0.88163618428175
7.1175797245964	0.88143088647108
7.1057705143399	0.88122578681997
7.0940004259347	0.88102088595372
7.0822692652965	0.88081618447629
7.0705768396226	0.88061168297053
7.0589229573817	0.88040738199845
7.0473074283028	0.88020328210137
7.0357300633654	0.87999938380021
7.0241906747891	0.87979568759568
7.0126890760234	0.87959219396852
7.0012250817375	0.87938890337970
6.9897985078107	0.87918581627068
6.9784091713222	0.87898293306360
6.9670568905415	0.87878025416151
6.9557414849188	0.87857777994861
6.9444627750753	0.87837551079045
6.9332205827937	0.87817344703417
6.9220147310090	0.87797158900870
6.9108450437990	0.87776993702501
6.8997113463751	0.87756849137628
6.8886134650735	0.87736725233819
6.8775512273457	0.87716622016909
6.8665244617499	0.87696539511022
6.8555329979419	0.87676477738595
6.8445766666667	0.87656436720400
6.8336552997493	0.87636416475562
6.8227687300865	0.87616417021585
6.8119167916383	0.87596438374373
6.8010993194192	0.87576480548249
6.7903161494904	0.87556543555979
6.7795671189507	0.87536627408794
6.7688520659291	0.87516732116407
6.7581708295762	0.87496857687043
6.7475232500563	0.87477004127450
6.7369091685393	0.87457171442928
6.7263284271932	0.87437359637349
6.7157808691756	0.87417568713175
6.7052663386267	0.87397798671481
6.6947846806610	0.87378049511978
6.6843357413601	0.87358321233032
6.6739193677649	0.87338613831685
6.6635354078684	0.87318927303675
6.6531837106081	0.87299261643460
6.6428641258586	0.87279616844237
6.6325765044248	0.87259992897962
6.6223206980340	0.87240389795372
6.6120965593295	0.87220807526005
6.6019039418630	0.87201246078219
6.5917427000879	0.87181705439217
6.5816126893524	0.87162185595063
6.5715137658922	0.87142686530703
6.5614457868243	0.87123208229990
6.5514086101399	0.87103750675695
6.5414020946978	0.87084313849538
6.5314261002179	0.87064897732199
6.5214804872743	0.87045502303343
6.5115651172893	0.87026127541640
6.5016798525266	0.87006773424782
6.4918245560849	0.86987439929505
6.4819990918919	0.86968127031607
6.4722033246978	0.86948834705971
6.4624371200690	0.86929562926581
6.4527003443823	0.86910311666543
6.4429928648184	0.86891080898106
6.4333145493562	0.86871870592676
6.4236652667667	0.86852680720843
6.4140448866068	0.86833511252395
6.4044532792138	0.86814362156336
6.3948903156997	0.86795233400910
6.3853558679446	0.86776124953618
6.3758498085921	0.86757036781233
6.3663720110427	0.86737968849825
6.3569223494487	0.86718921124776
6.3475006987084	0.86699893570798
6.3381069344609	0.86680886151955
6.3287409330800	0.86661898831678
6.3194025716695	0.86642931572786
6.3100917280572	0.86623984337502
6.3008082807902	0.86605057087473
6.2915521091291	0.86586149783788
6.2823230930427	0.86567262386994
6.2731211132036	0.86548394857118
6.2639460509820	0.86529547153680
6.2547977884415	0.86510719235714
6.2456762083333	0.86491911061785
6.2365811940919	0.86473122590007
6.2275126298297	0.86454353778058
6.2184704003319	0.86435604583203
6.2094543910522	0.86416874962304
6.2004644881075	0.86398164871843
6.1915005782734	0.86379474267937
6.1825625489792	0.86360803106355
6.1736502883031	0.86342151342535
6.1647636849681	0.86323518931601
6.1559026283368	0.86304905828381
6.1470670084068	0.86286311987421
6.1382567158067	0.86267737363004
6.1294716417910	0.86249181909164
6.1207116782360	0.86230645579707
6.1119767176351	0.86212128328222
6.1032666530945	0.86193630108100
6.0945813783289	0.86175150872549
6.0859207876573	0.86156690574612
6.0772847759984	0.86138249167181
6.0686732388664	0.86119826603013
6.0600860723671	0.86101422834745
6.0515231731934	0.86083037814914
6.0429844386212	0.86064671495965
6.0344697665056	0.86046323830273
6.0259790552764	0.86027994770156
6.0175122039342	0.86009684267890
6.0090691120465	0.85991392275722
6.0006496797438	0.85973118745889
5.9922538077154	0.85954863630632
5.9838813972056	0.85936626882208
5.9755323500100	0.85918408452909
5.9672065684713	0.85900208295070
5.9589039554760	0.85882026361092
5.9506244144502	0.85863862603449
5.9423678493558	0.85845716974708
5.9341341646873	0.85827589427538
5.9259232654675	0.85809479914727
5.9177350572444	0.85791388389197
5.9095694460871	0.85773314804015
5.9014263385827	0.85755259112408
5.8933056418321	0.85737221267777
5.8852072634472	0.85719201223712
5.8771311115468	0.85701198934000
5.8690770947533	0.85683214352644
5.8610451221896	0.85665247433876
5.8530351034752	0.85647298132164
5.8450469487229	0.85629366402234
5.8370805685358	0.85611452199074
5.8291358740035	0.85593555477954
5.8212127766990	0.85575676194433
5.8133111886756	0.85557814304375
5.8054310224632	0.85539969763963
5.7975721910656	0.85522142529704
5.7897346079567	0.85504332558450
5.7819181870781	0.85486539807405
5.7741228428351	0.85468764234138
5.7663484900942	0.85451005796595
5.7585950441798	0.85433264453109
5.7508624208709	0.85415540162418
5.7431505363985	0.85397832883667
5.7354593074421	0.85380142576427
5.7277886511272	0.85362469200704
5.7201384850219	0.85344812716949
5.7125087271341	0.85327173086068
5.7048992959087	0.85309550269440
5.6973101102242	0.85291944228918
5.6897410893908	0.85274354926847
5.6821921531463	0.85256782326070
5.6746632216544	0.85239226389944
5.6671542155009	0.85221687082345
5.6596650556919	0.85204164367680
5.6521956636501	0.85186658210897
5.6447459612126	0.85169168577499
5.6373158706281	0.85151695433546
5.6299053145540	0.85134238745671
5.6225142160540	0.85116798481091
5.6151424985952	0.85099374607608
5.6077900860456	0.85081967093629
5.6004569026714	0.85064575908167
5.5931428731343	0.85047201020856
5.5858479224893	0.85029842401956
5.5785719761816	0.85012500022365
5.5713149600446	0.84995173853625
5.5640768002970	0.84977863867934
5.5568574235403	0.84960570038153
5.5496567567568	0.84943292337813
5.5424747273063	0.84926030741127
5.5353112629247	0.84908785222995
5.5281662917204	0.84891555759013
5.5210397421731	0.84874342325482
5.5139315431304	0.84857144899416
5.5068416238060	0.84839963458549
5.4997699137773	0.84822797981343
5.4927163429828	0.84805648446994
5.4856808417200	0.84788514835443
5.4786633406433	0.84771397127380
5.4716637707611	0.84754295304255
5.4646820634342	0.84737209348278
5.4577181503732	0.84720139242436
5.4507719636364	0.84703084970490
5.4438434356274	0.84686046516989
5.4369324990932	0.84669023867273
5.4300390871219	0.84652017007482
5.4231631331404	0.84635025924557
5.4163045709124	0.84618050606254
5.4094633345363	0.84601091041145
5.4026393584430	0.84584147218623
5.3958325773938	0.84567219128915
5.3890429264785	0.84550306763078
5.3822703411131	0.84533410113014
5.3755147570378	0.84516529171467
5.3687761103152	0.84499663932036
5.3620543373278	0.84482814389176
5.3553493747767	0.84465980538203
5.3486611596789	0.84449162375303
5.3419896293656	0.84432359897532
5.3353347214807	0.84415573102823
5.3286963739780	0.84398801989993
5.3220745251198	0.84382046558743
5.3154691134752	0.84365306809667
5.3088800779175	0.84348582744252
5.3023073576229	0.84331874364888
5.2957508920685	0.84315181674864
5.2892106210303	0.84298504678382
5.2826864845815	0.84281843380551
5.2761784230905	0.84265197787399
5.2696863772192	0.84248567905870
5.2632102879213	0.84231953743833
5.2567500964405	0.84215355310082
5.2503057443082	0.84198772614341
5.2438771733427	0.84182205667266
5.2374643256464	0.84165654480448
5.2310671436050	0.84149119066417
5.2246855698850	0.84132599438646
5.2183195474326	0.84116095611550
5.2119690194715	0.84099607600491
5.2056339295016	0.84083135421782
5.1993142212973	0.84066679092686
5.1930098389052	0.84050238631419
5.1867207266436	0.84033814057156
5.1804468290997	0.84017405390027
5.1741880911288	0.84001012651124
5.1679444578521	0.83984635862499
5.1617158746556	0.83968275047168
5.1555022871883	0.83951930229113
5.1493036413604	0.83935601433281
5.1431198833419	0.83919288685587
5.1369509595613	0.83902992012916
5.1307968167037	0.83886711443121
5.1246574017094	0.83870447005027
5.1185326617722	0.83854198728432
5.1124225443383	0.83837966644104
5.1063269971044	0.83821750783787
5.1002459680163	0.83805551180197
5.0941794052676	0.83789367867025
5.0881272572980	0.83773200878936
5.0820894727920	0.83757050251569
5.0760660006773	0.83740916021539
5.0700567901235	0.83724798226436
5.0640617905405	0.83708696904823
5.0580809515775	0.83692612096237
5.0521142231210	0.83676543841192
5.0461615552937	0.83660492181171
5.0402228984533	0.83644457158633
5.0342982031906	0.83628438817009
5.0283874203287	0.83612437200698
5.0224905009214	0.83596452355074
5.0166073962517	0.83580484326477
5.0107380578305	0.83564533162215
5.0048824373957	0.83548598910565
4.9990404869101	0.83532681620768
4.9932121585610	0.83516781343030
4.9873974047579	0.83500898128517
4.9815961781323	0.83485032029358
4.9758084315353	0.83469183098642
4.9700341180371	0.83453351390410
4.9642731909256	0.83437536959664
4.9585256037049	0.83421739862354
4.9527913100942	0.83405960155384
4.9470702640264	0.83390197896604
4.9413624196473	0.83374453144810
4.9356677313138	0.83358725959742
4.9299861535932	0.83343016402081
4.9243176412615	0.83327324533444
4.9186621493027	0.83311650416383
4.9130196329072	0.83295994114385
4.9073900474709	0.83280355691862
4.9017733485939	0.83264735214154
4.8961694920790	0.83249132747522
4.8905784339315	0.83233548359147
4.8850001303569	0.83217982117125
4.8794345377604	0.83202434090463
4.8738816127459	0.83186904349078
4.8683413121143	0.83171392963789
4.8628135928629	0.83155900006319
4.8572984121841	0.83140425549282
4.8517957274640	0.83124969666191
4.8463054962819	0.83109532431441
4.8408276764088	0.83094113920314
4.8353622258065	0.83078714208972
