#Parameters = {thARC=0; nARC=2.5; thsub=1; p=1; nSub=1.5}
#"Wavelength / um"	"T (145) [Real Part]"
#---------------------------------------
14.989622900000	0.96000002521082
14.937342202292	0.96001203441954
14.885424925521	0.96002382734264
14.833867293419	0.96003540594237
14.782665581854	0.96004677217245
14.731816117936	0.96005792797809
14.681315279138	0.96006887529593
14.631159492435	0.96007961605409
14.581345233463	0.96009015217211
14.531869025691	0.96010048556096
14.482727439614	0.96011061812306
14.433917091960	0.96012055175222
14.385434644914	0.96013028833366
14.337276805356	0.96013982974401
14.289440324118	0.96014917785128
14.241921995249	0.96015833451486
14.194718655303	0.96016730158554
14.147827182633	0.96017608090545
14.101244496707	0.96018467430811
14.054967557431	0.96019308361838
14.008993364486	0.96020131065249
13.963318956684	0.96020935721801
13.917941411328	0.96021722511383
13.872857843591	0.96022491613022
13.828065405904	0.96023243204876
13.783561287356	0.96023977464235
13.739342713107	0.96024694567523
13.695406943810	0.96025394690296
13.651751275046	0.96026078007243
13.608373036768	0.96026744692182
13.565269592760	0.96027394918064
13.522438340099	0.96028028856972
13.479876708633	0.96028646680117
13.437582160466	0.96029248557845
13.395552189455	0.96029834659629
13.353784320713	0.96030405154073
13.312276110124	0.96030960208914
13.271025143869	0.96031499991017
13.230029037952	0.96032024666377
13.189285437747	0.96032534400122
13.148792017544	0.96033029356509
13.108546480105	0.96033509698924
13.068546556234	0.96033975589886
13.028790004346	0.96034427191044
12.989274610052	0.96034864663176
12.949998185745	0.96035288166194
12.910958570198	0.96035697859139
12.872153628167	0.96036093900184
12.833581250000	0.96036476446635
12.795239351259	0.96036845654929
12.757125872340	0.96037201680635
12.719238778108	0.96037544678454
12.681576057530	0.96037874802223
12.644135723323	0.96038192204908
12.606915811606	0.96038497038614
12.569914381551	0.96038789454575
12.533129515050	0.96039069603164
12.496559316382	0.96039337633888
12.460201911887	0.96039593695388
12.424055449648	0.96039837935443
12.388118099174	0.96040070500970
12.352388051092	0.96040291538021
12.316863516845	0.96040501191787
12.281542728390	0.96040699606599
12.246423937908	0.96040886925927
12.211505417515	0.96041063292379
12.176785458976	0.96041228847707
12.142262373431	0.96041383732803
12.107934491115	0.96041528087702
12.073800161095	0.96041662051581
12.039857751004	0.96041785762763
12.006105646776	0.96041899358715
11.972542252396	0.96042002976048
11.939165989646	0.96042096750523
11.905975297855	0.96042180817047
11.872968633663	0.96042255309673
11.840144470774	0.96042320361609
11.807501299724	0.96042376105208
11.775037627651	0.96042422671979
11.742751978065	0.96042460192579
11.710642890625	0.96042488796822
11.678708920919	0.96042508613675
11.646948640249	0.96042519771263
11.615360635413	0.96042522396864
11.583943508501	0.96042516616918
11.552695876686	0.96042502557021
11.521616372022	0.96042480341931
11.490703641242	0.96042450095568
11.459956345566	0.96042411941014
11.429373160503	0.96042366000515
11.398952775665	0.96042312395482
11.368693894577	0.96042251246495
11.338595234493	0.96042182673298
11.308655526217	0.96042106794808
11.278873513920	0.96042023729111
11.249247954972	0.96041933593464
11.219777619760	0.96041836504300
11.190461291527	0.96041732577224
11.161297766195	0.96041621927020
11.132285852209	0.96041504667648
11.103424370370	0.96041380912248
11.074712153676	0.96041250773140
11.046148047163	0.96041114361826
11.017730907755	0.96040971788994
10.989459604106	0.96040823164515
10.961333016453	0.96040668597448
10.933350036470	0.96040508196039
10.905509567115	0.96040342067727
10.877810522496	0.96040170319139
10.850251827723	0.96039993056100
10.822832418773	0.96039810383625
10.795551242348	0.96039622405930
10.768407255747	0.96039429226428
10.741399426729	0.96039230947730
10.714526733381	0.96039027671652
10.687788163993	0.96038819499213
10.661182716927	0.96038606530636
10.634709400497	0.96038388865353
10.608367232838	0.96038166602003
10.582155241793	0.96037939838438
10.556072464789	0.96037708671722
10.530117948718	0.96037473198134
10.504290749825	0.96037233513167
10.478589933590	0.96036989711536
10.453014574616	0.96036741887174
10.427563756522	0.96036490133237
10.402236571825	0.96036234542104
10.377032121841	0.96035975205382
10.351949516575	0.96035712213904
10.326987874612	0.96035445657735
10.302146323024	0.96035175626170
10.277423997257	0.96034902207741
10.252820041040	0.96034625490213
10.228333606278	0.96034345560591
10.203963852961	0.96034062505120
10.179709949066	0.96033776409287
10.155571070461	0.96033487357822
10.131546400811	0.96033195434706
10.107635131490	0.96032900723163
10.083836461487	0.96032603305672
10.060149597315	0.96032303263963
10.036573752929	0.96032000679022
10.013108149633	0.96031695631091
9.9897520159947	0.96031388199674
9.9665045877660	0.96031078463533
9.9433651077944	0.96030766500697
9.9203328259431	0.96030452388460
9.8974069990096	0.96030136203385
9.8745868906456	0.96029818021305
9.8518717712783	0.96029497917326
9.8292609180328	0.96029175965830
9.8067536146549	0.96028852240475
9.7843491514360	0.96028526814202
9.7620468251384	0.96028199759229
9.7398459389214	0.96027871147064
9.7177458022690	0.96027541048498
9.6957457309185	0.96027209533614
9.6738450467893	0.96026876671785
9.6520430779137	0.96026542531677
9.6303391583681	0.96026207181256
9.6087326282051	0.96025870687782
9.5872228333866	0.96025533117821
9.5658091257179	0.96025194537240
9.5444908627826	0.96024855011211
9.5232674078780	0.96024514604219
9.5021381299525	0.96024173380054
9.4811024035421	0.96023831401825
9.4601596087094	0.96023488731955
9.4393091309824	0.96023145432184
9.4185503612944	0.96022801563574
9.3978826959248	0.96022457186513
9.3773055364404	0.96022112360711
9.3568182896380	0.96021767145209
9.3364203674868	0.96021421598379
9.3161111870727	0.96021075777926
9.2958901705426	0.96020729740892
9.2757567450495	0.96020383543659
9.2557103426984	0.96020037241947
9.2357504004929	0.96019690890823
9.2158763602828	0.96019344544701
9.1960876687117	0.96018998257342
9.1763837771656	0.96018652081860
9.1567641417227	0.96018306070724
9.1372282231027	0.96017960275761
9.1177754866180	0.96017614748155
9.0984054021244	0.96017269538456
9.0791174439733	0.96016924696576
9.0599110909640	0.96016580271797
9.0407858262967	0.96016236312772
9.0217411375263	0.96015892867525
9.0027765165165	0.96015549983458
8.9838914593947	0.96015207707350
8.9650854665072	0.96014866085363
8.9463580423754	0.96014525163043
8.9277086956522	0.96014184985321
8.9091369390788	0.96013845596520
8.8906422894425	0.96013507040353
8.8722242675348	0.96013169359931
8.8538823981099	0.96012832597761
8.8356162098438	0.96012496795750
8.8174252352941	0.96012161995211
8.7993090108600	0.96011828236859
8.7812670767428	0.96011495560823
8.7632989769073	0.96011164006641
8.7454042590432	0.96010833613265
8.7275824745269	0.96010504419066
8.7098331783847	0.96010176461835
8.6921559292549	0.96009849778785
8.6745502893519	0.96009524406557
8.6570158244297	0.96009200381217
8.6395521037464	0.96008877738268
8.6221587000288	0.96008556512642
8.6048351894374	0.96008236738711
8.5875811515325	0.96007918450288
8.5703961692396	0.96007601680627
8.5532798288160	0.96007286462428
8.5362317198178	0.96006972827840
8.5192514350668	0.96006660808466
8.5023385706183	0.96006350435360
8.4854927257288	0.96006041739034
8.4687135028249	0.96005734749463
8.4520005074711	0.96005429496082
8.4353533483399	0.96005126007793
8.4187716371806	0.96004824312969
8.4022549887892	0.96004524439451
8.3858030209790	0.96004226414559
8.3694153545505	0.96003930265087
8.3530916132627	0.96003636017313
8.3368314238042	0.96003343696995
8.3206344157646	0.96003053329382
8.3045002216066	0.96002764939207
8.2884284766381	0.96002478550701
8.2724188189845	0.96002194187585
8.2564708895621	0.96001911873083
8.2405843320506	0.96001631629917
8.2247587928669	0.96001353480314
8.2089939211391	0.96001077446009
8.1932893686800	0.96000803548246
8.1776447899618	0.96000531807782
8.1620598420909	0.96000262244892
8.1465341847826	0.95999994879366
8.1310674803363	0.95999729730520
8.1156593936113	0.95999466817193
8.1003095920022	0.95999206157752
8.0850177454153	0.95998947770094
8.0697835262450	0.95998691671652
8.0546066093498	0.95998437879393
8.0394866720300	0.95998186409827
8.0244233940043	0.95997937279005
8.0094164573871	0.95997690502522
7.9944655466667	0.95997446095525
7.9795703486825	0.95997204072711
7.9647305526036	0.95996964448332
7.9499458499072	0.95996727236198
7.9352159343568	0.95996492449678
7.9205405019815	0.95996260101708
7.9059192510549	0.95996030204787
7.8913518820742	0.95995802770987
7.8768380977404	0.95995577811949
7.8623776029373	0.95995355338894
7.8479701047120	0.95995135362618
7.8336153122550	0.95994917893500
7.8193129368805	0.95994702941505
7.8050626920073	0.95994490516183
7.7908642931393	0.95994280626677
7.7767174578470	0.95994073281722
7.7626219057483	0.95993868489651
7.7485773584906	0.95993666258395
7.7345835397317	0.95993466595490
7.7206401751223	0.95993269508075
7.7067469922879	0.95993075002900
7.6929037208109	0.95992883086326
7.6791100922131	0.95992693764326
7.6653658399386	0.95992507042496
7.6516706993364	0.95992322926047
7.6380244076433	0.95992141419818
7.6244267039674	0.95991962528272
7.6108773292714	0.95991786255503
7.5973760263558	0.95991612605236
7.5839225398432	0.95991441580834
7.5705166161616	0.95991273185297
7.5571580035291	0.95991107421267
7.5438464519376	0.95990944291030
7.5305817131374	0.95990783796521
7.5173635406219	0.95990625939324
7.5041916896120	0.95990470720678
7.4910659170415	0.95990318141477
7.4779859815415	0.95990168202276
7.4649516434263	0.95990020903291
7.4519626646781	0.95989876244405
7.4390188089330	0.95989734225169
7.4261198414664	0.95989594844804
7.4132655291790	0.95989458102208
7.4004556405826	0.95989323995953
7.3876899457861	0.95989192524295
7.3749682164822	0.95989063685172
7.3622902259332	0.95988937476205
7.3496557489581	0.95988813894710
7.3370645619187	0.95988692937691
7.3245164427071	0.95988574601847
7.3120111707317	0.95988458883579
7.2995485269053	0.95988345778984
7.2871282936315	0.95988235283867
7.2747502547925	0.95988127393738
7.2624141957364	0.95988022103817
7.2501199032648	0.95987919409036
7.2378671656205	0.95987819304045
7.2256557724753	0.95987721783210
7.2134855149182	0.95987626840622
7.2013561854432	0.95987534470092
7.1892675779376	0.95987444665161
7.1772194876706	0.95987357419102
7.1652117112811	0.95987272724917
7.1532440467669	0.95987190575348
7.1413162934731	0.95987110962874
7.1294282520809	0.95987033879716
7.1175797245964	0.95986959317841
7.1057705143399	0.95986887268962
7.0940004259347	0.95986817724545
7.0822692652965	0.95986750675806
7.0705768396226	0.95986686113722
7.0589229573817	0.95986624029024
7.0473074283028	0.95986564412210
7.0357300633654	0.95986507253539
7.0241906747891	0.95986452543040
7.0126890760234	0.95986400270513
7.0012250817375	0.95986350425530
6.9897985078107	0.95986302997441
6.9784091713222	0.95986257975372
6.9670568905415	0.95986215348236
6.9557414849188	0.95986175104726
6.9444627750753	0.95986137233327
6.9332205827937	0.95986101722311
6.9220147310090	0.95986068559744
6.9108450437990	0.95986037733490
6.8997113463751	0.95986009231210
6.8886134650735	0.95985983040368
6.8775512273457	0.95985959148232
6.8665244617499	0.95985937541876
6.8555329979419	0.95985918208186
6.8445766666667	0.95985901133860
6.8336552997493	0.95985886305411
6.8227687300865	0.95985873709172
6.8119167916383	0.95985863331295
6.8010993194192	0.95985855157758
6.7903161494904	0.95985849174363
6.7795671189507	0.95985845366744
6.7688520659291	0.95985843720365
6.7581708295762	0.95985844220526
6.7475232500563	0.95985846852364
6.7369091685393	0.95985851600856
6.7263284271932	0.95985858450821
6.7157808691756	0.95985867386927
6.7052663386267	0.95985878393686
6.6947846806610	0.95985891455463
6.6843357413601	0.95985906556478
6.6739193677649	0.95985923680803
6.6635354078684	0.95985942812373
6.6531837106081	0.95985963934984
6.6428641258586	0.95985987032294
6.6325765044248	0.95986012087829
6.6223206980340	0.95986039084985
6.6120965593295	0.95986068007030
6.6019039418630	0.95986098837107
6.5917427000879	0.95986131558234
6.5816126893524	0.95986166153313
6.5715137658922	0.95986202605123
6.5614457868243	0.95986240896334
6.5514086101399	0.95986281009500
6.5414020946978	0.95986322927065
6.5314261002179	0.95986366631367
6.5214804872743	0.95986412104640
6.5115651172893	0.95986459329015
6.5016798525266	0.95986508286522
6.4918245560849	0.95986558959096
6.4819990918919	0.95986611328577
6.4722033246978	0.95986665376711
6.4624371200690	0.95986721085157
6.4527003443823	0.95986778435487
6.4429928648184	0.95986837409185
6.4333145493562	0.95986897987655
6.4236652667667	0.95986960152224
6.4140448866068	0.95987023884137
6.4044532792138	0.95987089164566
6.3948903156997	0.95987155974612
6.3853558679446	0.95987224295306
6.3758498085921	0.95987294107608
6.3663720110427	0.95987365392418
6.3569223494487	0.95987438130569
6.3475006987084	0.95987512302836
6.3381069344609	0.95987587889936
6.3287409330800	0.95987664872529
6.3194025716695	0.95987743231223
6.3100917280572	0.95987822946576
6.3008082807902	0.95987903999094
6.2915521091291	0.95987986369241
6.2823230930427	0.95988070037435
6.2731211132036	0.95988154984052
6.2639460509820	0.95988241189430
6.2547977884415	0.95988328633870
6.2456762083333	0.95988417297637
6.2365811940919	0.95988507160965
6.2275126298297	0.95988598204057
6.2184704003319	0.95988690407088
6.2094543910522	0.95988783750208
6.2004644881075	0.95988878213544
6.1915005782734	0.95988973777201
6.1825625489792	0.95989070421264
6.1736502883031	0.95989168125804
6.1647636849681	0.95989266870874
6.1559026283368	0.95989366636518
6.1470670084068	0.95989467402767
6.1382567158067	0.95989569149645
6.1294716417910	0.95989671857171
6.1207116782360	0.95989775505357
6.1119767176351	0.95989880074218
6.1032666530945	0.95989985543765
6.0945813783289	0.95990091894015
6.0859207876573	0.95990199104987
6.0772847759984	0.95990307156708
6.0686732388664	0.95990416029214
6.0600860723671	0.95990525702550
6.0515231731934	0.95990636156777
6.0429844386212	0.95990747371968
6.0344697665056	0.95990859328213
6.0259790552764	0.95990972005624
6.0175122039342	0.95991085384331
6.0090691120465	0.95991199444488
6.0006496797438	0.95991314166274
5.9922538077154	0.95991429529893
5.9838813972056	0.95991545515582
5.9755323500100	0.95991662103604
5.9672065684713	0.95991779274258
5.9589039554760	0.95991897007876
5.9506244144502	0.95992015284828
5.9423678493558	0.95992134085521
5.9341341646873	0.95992253390403
5.9259232654675	0.95992373179963
5.9177350572444	0.95992493434736
5.9095694460871	0.95992614135302
5.9014263385827	0.95992735262288
5.8933056418321	0.95992856796372
5.8852072634472	0.95992978718282
5.8771311115468	0.95993101008800
5.8690770947533	0.95993223648762
5.8610451221896	0.95993346619063
5.8530351034752	0.95993469900653
5.8450469487229	0.95993593474546
5.8370805685358	0.95993717321814
5.8291358740035	0.95993841423596
5.8212127766990	0.95993965761095
5.8133111886756	0.95994090315581
5.8054310224632	0.95994215068394
5.7975721910656	0.95994340000942
5.7897346079567	0.95994465094708
5.7819181870781	0.95994590331247
5.7741228428351	0.95994715692189
5.7663484900942	0.95994841159243
5.7585950441798	0.95994966714194
5.7508624208709	0.95995092338911
5.7431505363985	0.95995218015340
5.7354593074421	0.95995343725515
5.7277886511272	0.95995469451551
5.7201384850219	0.95995595175652
5.7125087271341	0.95995720880110
5.7048992959087	0.95995846547306
5.6973101102242	0.95995972159710
5.6897410893908	0.95996097699888
5.6821921531463	0.95996223150499
5.6746632216544	0.95996348494295
5.6671542155009	0.95996473714128
5.6596650556919	0.95996598792948
5.6521956636501	0.95996723713802
5.6447459612126	0.95996848459841
5.6373158706281	0.95996973014318
5.6299053145540	0.95997097360590
5.6225142160540	0.95997221482118
5.6151424985952	0.95997345362471
5.6077900860456	0.95997468985326
5.6004569026714	0.95997592334469
5.5931428731343	0.95997715393797
5.5858479224893	0.95997838147318
5.5785719761816	0.95997960579156
5.5713149600446	0.95998082673545
5.5640768002970	0.95998204414839
5.5568574235403	0.95998325787506
5.5496567567568	0.95998446776136
5.5424747273063	0.95998567365434
5.5353112629247	0.95998687540228
5.5281662917204	0.95998807285469
5.5210397421731	0.95998926586229
5.5139315431304	0.95999045427705
5.5068416238060	0.95999163795220
5.4997699137773	0.95999281674221
5.4927163429828	0.95999399050286
5.4856808417200	0.95999515909120
5.4786633406433	0.95999632236558
5.4716637707611	0.95999748018566
5.4646820634342	0.95999863241241
5.4577181503732	0.95999977890814
5.4507719636364	0.96000091953650
5.4438434356274	0.96000205416248
5.4369324990932	0.96000318265246
5.4300390871219	0.96000430487415
5.4231631331404	0.96000542069666
5.4163045709124	0.96000652999050
5.4094633345363	0.96000763262755
5.4026393584430	0.96000872848114
5.3958325773938	0.96000981742597
5.3890429264785	0.96001089933820
5.3822703411131	0.96001197409542
5.3755147570378	0.96001304157665
5.3687761103152	0.96001410166238
5.3620543373278	0.96001515423454
5.3553493747767	0.96001619917656
5.3486611596789	0.96001723637333
5.3419896293656	0.96001826571121
5.3353347214807	0.96001928707809
5.3286963739780	0.96002030036332
5.3220745251198	0.96002130545779
5.3154691134752	0.96002230225389
5.3088800779175	0.96002329064554
5.3023073576229	0.96002427052819
5.2957508920685	0.96002524179883
5.2892106210303	0.96002620435599
5.2826864845815	0.96002715809973
5.2761784230905	0.96002810293172
5.2696863772192	0.96002903875513
5.2632102879213	0.96002996547476
5.2567500964405	0.96003088299693
5.2503057443082	0.96003179122959
5.2438771733427	0.96003269008225
5.2374643256464	0.96003357946601
5.2310671436050	0.96003445929359
5.2246855698850	0.96003532947930
5.2183195474326	0.96003618993905
5.2119690194715	0.96003704059039
5.2056339295016	0.96003788135246
5.1993142212973	0.96003871214604
5.1930098389052	0.96003953289354
5.1867207266436	0.96004034351899
5.1804468290997	0.96004114394807
5.1741880911288	0.96004193410810
5.1679444578521	0.96004271392802
5.1617158746556	0.96004348333845
5.1555022871883	0.96004424227166
5.1493036413604	0.96004499066154
5.1431198833419	0.96004572844369
5.1369509595613	0.96004645555533
5.1307968167037	0.96004717193537
5.1246574017094	0.96004787752438
5.1185326617722	0.96004857226459
5.1124225443383	0.96004925609992
5.1063269971044	0.96004992897596
5.1002459680163	0.96005059083997
5.0941794052676	0.96005124164091
5.0881272572980	0.96005188132940
5.0820894727920	0.96005250985775
5.0760660006773	0.96005312717997
5.0700567901235	0.96005373325173
5.0640617905405	0.96005432803041
5.0580809515775	0.96005491147508
5.0521142231210	0.96005548354648
5.0461615552937	0.96005604420707
5.0402228984533	0.96005659342097
5.0342982031906	0.96005713115401
5.0283874203287	0.96005765737373
5.0224905009214	0.96005817204933
5.0166073962517	0.96005867515173
5.0107380578305	0.96005916665352
5.0048824373957	0.96005964652901
4.9990404869101	0.96006011475418
4.9932121585610	0.96006057130671
4.9873974047579	0.96006101616598
4.9815961781323	0.96006144931305
4.9758084315353	0.96006187073068
4.9700341180371	0.96006228040330
4.9642731909256	0.96006267831705
4.9585256037049	0.96006306445975
4.9527913100942	0.96006343882090
4.9470702640264	0.96006380139167
4.9413624196473	0.96006415216495
4.9356677313138	0.96006449113527
4.9299861535932	0.96006481829885
4.9243176412615	0.96006513365359
4.9186621493027	0.96006543719906
4.9130196329072	0.96006572893650
4.9073900474709	0.96006600886881
4.9017733485939	0.96006627700056
4.8961694920790	0.96006653333797
4.8905784339315	0.96006677788895
4.8850001303569	0.96006701066301
4.8794345377604	0.96006723167137
4.8738816127459	0.96006744092684
4.8683413121143	0.96006763844392
4.8628135928629	0.96006782423873
4.8572984121841	0.96006799832901
4.8517957274640	0.96006816073415
4.8463054962819	0.96006831147517
4.8408276764088	0.96006845057469
4.8353622258065	0.96006857805696
