#Parameters = {thARC=1; nARC=2.5; thsub=1; p=1; nSub=1.5}
#"Wavelength / um"	"T (150) [Real Part]"
#---------------------------------------
14.989622900000	0.68398686764995
14.937342202292	0.68319553876096
14.885424925521	0.68240862217458
14.833867293419	0.68162614993608
14.782665581854	0.68084815354950
14.731816117936	0.68007466398384
14.681315279138	0.67930571167928
14.631159492435	0.67854132655342
14.581345233463	0.67778153800741
14.531869025691	0.67702637493218
14.482727439614	0.67627586571460
14.433917091960	0.67553003824359
14.385434644914	0.67478891991629
14.337276805356	0.67405253764416
14.289440324118	0.67332091785910
14.241921995249	0.67259408651947
14.194718655303	0.67187206911621
14.147827182633	0.67115489067881
14.101244496707	0.67044257578132
14.054967557431	0.66973514854839
14.008993364486	0.66903263266113
13.963318956684	0.66833505136311
13.917941411328	0.66764242746620
13.872857843591	0.66695478335648
13.828065405904	0.66627214100002
13.783561287356	0.66559452194874
13.739342713107	0.66492194734614
13.695406943810	0.66425443793306
13.651751275046	0.66359201405335
13.608373036768	0.66293469565957
13.565269592760	0.66228250231860
13.522438340099	0.66163545321725
13.479876708633	0.66099356716781
13.437582160466	0.66035686261355
13.395552189455	0.65972535763424
13.353784320713	0.65909906995158
13.312276110124	0.65847801693454
13.271025143869	0.65786221560484
13.230029037952	0.65725168264216
13.189285437747	0.65664643438950
13.148792017544	0.65604648685835
13.108546480105	0.65545185573395
13.068546556234	0.65486255638039
13.028790004346	0.65427860384578
12.989274610052	0.65370001286723
12.949998185745	0.65312679787597
12.910958570198	0.65255897300226
12.872153628167	0.65199655208036
12.833581250000	0.65143954865342
12.795239351259	0.65088797597829
12.757125872340	0.65034184703037
12.719238778108	0.64980117450833
12.681576057530	0.64926597083884
12.644135723323	0.64873624818121
12.606915811606	0.64821201843203
12.569914381551	0.64769329322975
12.533129515050	0.64718008395916
12.496559316382	0.64667240175592
12.460201911887	0.64617025751095
12.424055449648	0.64567366187485
12.388118099174	0.64518262526223
12.352388051092	0.64469715785598
12.316863516845	0.64421726961153
12.281542728390	0.64374297026106
12.246423937908	0.64327426931764
12.211505417515	0.64281117607933
12.176785458976	0.64235369963323
12.142262373431	0.64190184885952
12.107934491115	0.64145563243540
12.073800161095	0.64101505883900
12.039857751004	0.64058013635327
12.006105646776	0.64015087306979
11.972542252396	0.63972727689254
11.939165989646	0.63930935554164
11.905975297855	0.63889711655704
11.872968633663	0.63849056730212
11.840144470774	0.63808971496732
11.807501299724	0.63769456657366
11.775037627651	0.63730512897623
11.742751978065	0.63692140886765
11.710642890625	0.63654341278149
11.678708920919	0.63617114709558
11.646948640249	0.63580461803538
11.615360635413	0.63544383167720
11.583943508501	0.63508879395143
11.552695876686	0.63473951064573
11.521616372022	0.63439598740815
11.490703641242	0.63405822975021
11.459956345566	0.63372624304993
11.429373160503	0.63340003255486
11.398952775665	0.63307960338497
11.368693894577	0.63276496053561
11.338595234493	0.63245610888035
11.308655526217	0.63215305317377
11.278873513920	0.63185579805429
11.249247954972	0.63156434804681
11.219777619760	0.63127870756550
11.190461291527	0.63099888091635
11.161297766195	0.63072487229980
11.132285852209	0.63045668581333
11.103424370370	0.63019432545389
11.074712153676	0.62993779512044
11.046148047163	0.62968709861635
11.017730907755	0.62944223965177
10.989459604106	0.62920322184597
10.961333016453	0.62897004872969
10.933350036470	0.62874272374730
10.905509567115	0.62852125025911
10.877810522496	0.62830563154348
10.850251827723	0.62809587079899
10.822832418773	0.62789197114650
10.795551242348	0.62769393563122
10.768407255747	0.62750176722470
10.741399426729	0.62731546882682
10.714526733381	0.62713504326772
10.687788163993	0.62696049330963
10.661182716927	0.62679182164882
10.634709400497	0.62662903091730
10.608367232838	0.62647212368465
10.582155241793	0.62632110245976
10.556072464789	0.62617596969245
10.530117948718	0.62603672777519
10.504290749825	0.62590337904468
10.478589933590	0.62577592578341
10.453014574616	0.62565437022123
10.427563756522	0.62553871453681
10.402236571825	0.62542896085909
10.377032121841	0.62532511126875
10.351949516575	0.62522716779954
10.326987874612	0.62513513243963
10.302146323024	0.62504900713294
10.277423997257	0.62496879378037
10.252820041040	0.62489449424106
10.228333606278	0.62482611033357
10.203963852961	0.62476364383704
10.179709949066	0.62470709649229
10.155571070461	0.62465647000294
10.131546400811	0.62461176603639
10.107635131490	0.62457298622492
10.083836461487	0.62454013216655
10.060149597315	0.62451320542609
10.036573752929	0.62449220753594
10.013108149633	0.62447713999701
9.9897520159947	0.62446800427955
9.9665045877660	0.62446480182389
9.9433651077944	0.62446753404125
9.9203328259431	0.62447620231444
9.8974069990096	0.62449080799852
9.8745868906456	0.62451135242150
9.8518717712783	0.62453783688489
9.8292609180328	0.62457026266433
9.8067536146549	0.62460863101010
9.7843491514360	0.62465294314767
9.7620468251384	0.62470320027810
9.7398459389214	0.62475940357854
9.7177458022690	0.62482155420261
9.6957457309185	0.62488965328078
9.6738450467893	0.62496370192068
9.6520430779137	0.62504370120739
9.6303391583681	0.62512965220376
9.6087326282051	0.62522155595057
9.5872228333866	0.62531941346677
9.5658091257179	0.62542322574963
9.5444908627826	0.62553299377484
9.5232674078780	0.62564871849664
9.5021381299525	0.62577040084783
9.4811024035421	0.62589804173984
9.4601596087094	0.62603164206268
9.4393091309824	0.62617120268492
9.4185503612944	0.62631672445357
9.3978826959248	0.62646820819401
9.3773055364404	0.62662565470981
9.3568182896380	0.62678906478256
9.3364203674868	0.62695843917163
9.3161111870727	0.62713377861394
9.2958901705426	0.62731508382365
9.2757567450495	0.62750235549187
9.2557103426984	0.62769559428626
9.2357504004929	0.62789480085068
9.2158763602828	0.62809997580473
9.1960876687117	0.62831111974332
9.1763837771656	0.62852823323615
9.1567641417227	0.62875131682719
9.1372282231027	0.62898037103412
9.1177754866180	0.62921539634774
9.0984054021244	0.62945639323130
9.0791174439733	0.62970336211988
9.0599110909640	0.62995630341966
9.0407858262967	0.63021521750717
9.0217411375263	0.63048010472855
9.0027765165165	0.63075096539872
8.9838914593947	0.63102779980056
8.9650854665072	0.63131060818398
8.9463580423754	0.63159939076507
8.9277086956522	0.63189414772513
8.9091369390788	0.63219487920965
8.8906422894425	0.63250158532735
8.8722242675348	0.63281426614908
8.8538823981099	0.63313292170675
8.8356162098438	0.63345755199222
8.8174252352941	0.63378815695608
8.7993090108600	0.63412473650653
8.7812670767428	0.63446729050809
8.7632989769073	0.63481581878033
8.7454042590432	0.63517032109662
8.7275824745269	0.63553079718271
8.7098331783847	0.63589724671542
8.6921559292549	0.63626966932119
8.6745502893519	0.63664806457461
8.6570158244297	0.63703243199698
8.6395521037464	0.63742277105476
8.6221587000288	0.63781908115797
8.6048351894374	0.63822136165868
8.5875811515325	0.63862961184927
8.5703961692396	0.63904383096084
8.5532798288160	0.63946401816145
8.5362317198178	0.63989017255436
8.5192514350668	0.64032229317631
8.5023385706183	0.64076037899562
8.4854927257288	0.64120442891036
8.4687135028249	0.64165444174645
8.4520005074711	0.64211041625572
8.4353533483399	0.64257235111393
8.4187716371806	0.64304024491873
8.4022549887892	0.64351409618764
8.3858030209790	0.64399390335596
8.3694153545505	0.64447966477458
8.3530916132627	0.64497137870786
8.3368314238042	0.64546904333142
8.3206344157646	0.64597265672986
8.3045002216066	0.64648221689447
8.2884284766381	0.64699772172094
8.2724188189845	0.64751916900693
8.2564708895621	0.64804655644972
8.2405843320506	0.64857988164372
8.2247587928669	0.64911914207799
8.2089939211391	0.64966433513372
8.1932893686800	0.65021545808164
8.1776447899618	0.65077250807944
8.1620598420909	0.65133548216909
8.1465341847826	0.65190437727415
8.1310674803363	0.65247919019704
8.1156593936113	0.65305991761628
8.1003095920022	0.65364655608366
8.0850177454153	0.65423910202139
8.0697835262450	0.65483755171918
8.0546066093498	0.65544190133134
8.0394866720300	0.65605214687377
8.0244233940043	0.65666828422095
8.0094164573871	0.65729030910286
7.9944655466667	0.65791821710189
7.9795703486825	0.65855200364969
7.9647305526036	0.65919166402399
7.9499458499072	0.65983719334534
7.9352159343568	0.66048858657385
7.9205405019815	0.66114583850589
7.9059192510549	0.66180894377072
7.8913518820742	0.66247789682707
7.8768380977404	0.66315269195976
7.8623776029373	0.66383332327612
7.8479701047120	0.66451978470255
7.8336153122550	0.66521206998092
7.8193129368805	0.66591017266494
7.8050626920073	0.66661408611654
7.7908642931393	0.66732380350214
7.7767174578470	0.66803931778894
7.7626219057483	0.66876062174114
7.7485773584906	0.66948770791610
7.7345835397317	0.67022056866048
7.7206401751223	0.67095919610634
7.7067469922879	0.67170358216719
7.6929037208109	0.67245371853402
7.6791100922131	0.67320959667122
7.6653658399386	0.67397120781254
7.6516706993364	0.67473854295700
7.6380244076433	0.67551159286467
7.6244267039674	0.67629034805252
7.6108773292714	0.67707479879016
7.5973760263558	0.67786493509560
7.5839225398432	0.67866074673085
7.5705166161616	0.67946222319765
7.5571580035291	0.68026935373301
7.5438464519376	0.68108212730477
7.5305817131374	0.68190053260716
7.5173635406219	0.68272455805624
7.5041916896120	0.68355419178536
7.4910659170415	0.68438942164056
7.4779859815415	0.68523023517590
7.4649516434263	0.68607661964885
7.4519626646781	0.68692856201552
7.4390188089330	0.68778604892591
7.4261198414664	0.68864906671917
7.4132655291790	0.68951760141872
7.4004556405826	0.69039163872741
7.3876899457861	0.69127116402264
7.3749682164822	0.69215616235140
7.3622902259332	0.69304661842530
7.3496557489581	0.69394251661558
7.3370645619187	0.69484384094810
7.3245164427071	0.69575057509821
7.3120111707317	0.69666270238570
7.2995485269053	0.69758020576961
7.2871282936315	0.69850306784315
7.2747502547925	0.69943127082840
7.2624141957364	0.70036479657117
7.2501199032648	0.70130362653570
7.2378671656205	0.70224774179935
7.2256557724753	0.70319712304737
7.2134855149182	0.70415175056746
7.2013561854432	0.70511160424447
7.1892675779376	0.70607666355500
7.1772194876706	0.70704690756195
7.1652117112811	0.70802231490911
7.1532440467669	0.70900286381568
7.1413162934731	0.70998853207081
7.1294282520809	0.71097929702806
7.1175797245964	0.71197513559990
7.1057705143399	0.71297602425214
7.0940004259347	0.71398193899841
7.0822692652965	0.71499285539454
7.0705768396226	0.71600874853298
7.0589229573817	0.71702959303722
7.0473074283028	0.71805536305611
7.0357300633654	0.71908603225830
7.0241906747891	0.72012157382653
7.0126890760234	0.72116196045204
7.0012250817375	0.72220716432887
6.9897985078107	0.72325715714820
6.9784091713222	0.72431191009270
6.9670568905415	0.72537139383086
6.9557414849188	0.72643557851128
6.9444627750753	0.72750443375703
6.9332205827937	0.72857792865997
6.9220147310090	0.72965603177509
6.9108450437990	0.73073871111482
6.8997113463751	0.73182593414339
6.8886134650735	0.73291766777119
6.8775512273457	0.73401387834911
6.8665244617499	0.73511453166294
6.8555329979419	0.73621959292772
6.8445766666667	0.73732902678220
6.8336552997493	0.73844279728320
6.8227687300865	0.73956086790009
6.8119167916383	0.74068320150924
6.8010993194192	0.74180976038852
6.7903161494904	0.74294050621180
6.7795671189507	0.74407540004350
6.7688520659291	0.74521440233316
6.7581708295762	0.74635747291006
6.7475232500563	0.74750457097782
6.7369091685393	0.74865565510915
6.7263284271932	0.74981068324050
6.7157808691756	0.75096961266687
6.7052663386267	0.75213240003659
6.6947846806610	0.75329900134618
6.6843357413601	0.75446937193528
6.6739193677649	0.75564346648157
6.6635354078684	0.75682123899581
6.6531837106081	0.75800264281692
6.6428641258586	0.75918763060707
6.6325765044248	0.76037615434694
6.6223206980340	0.76156816533093
6.6120965593295	0.76276361416253
6.6019039418630	0.76396245074969
6.5917427000879	0.76516462430036
6.5816126893524	0.76637008331798
6.5715137658922	0.76757877559719
6.5614457868243	0.76879064821952
6.5514086101399	0.77000564754919
6.5414020946978	0.77122371922907
6.5314261002179	0.77244480817664
6.5214804872743	0.77366885858010
6.5115651172893	0.77489581389457
6.5016798525266	0.77612561683841
6.4918245560849	0.77735820938960
6.4819990918919	0.77859353278229
6.4722033246978	0.77983152750345
6.4624371200690	0.78107213328957
6.4527003443823	0.78231528912361
6.4429928648184	0.78356093323196
6.4333145493562	0.78480900308158
6.4236652667667	0.78605943537726
6.4140448866068	0.78731216605904
6.4044532792138	0.78856713029974
6.3948903156997	0.78982426250264
6.3853558679446	0.79108349629932
6.3758498085921	0.79234476454762
6.3663720110427	0.79360799932982
6.3569223494487	0.79487313195089
6.3475006987084	0.79614009293699
6.3381069344609	0.79740881203406
6.3287409330800	0.79867921820664
6.3194025716695	0.79995123963680
6.3100917280572	0.80122480372334
6.3008082807902	0.80249983708109
6.2915521091291	0.80377626554040
6.2823230930427	0.80505401414689
6.2731211132036	0.80633300716132
6.2639460509820	0.80761316805966
6.2547977884415	0.80889441953343
6.2456762083333	0.81017668349019
6.2365811940919	0.81145988105420
6.2275126298297	0.81274393256742
6.2184704003319	0.81402875759058
6.2094543910522	0.81531427490457
6.2004644881075	0.81660040251200
6.1915005782734	0.81788705763904
6.1825625489792	0.81917415673745
6.1736502883031	0.82046161548685
6.1647636849681	0.82174934879725
6.1559026283368	0.82303727081180
6.1470670084068	0.82432529490978
6.1382567158067	0.82561333370993
6.1294716417910	0.82690129907386
6.1207116782360	0.82818910210990
6.1119767176351	0.82947665317711
6.1032666530945	0.83076386188954
6.0945813783289	0.83205063712086
6.0859207876573	0.83333688700913
6.0772847759984	0.83462251896195
6.0686732388664	0.83590743966185
6.0600860723671	0.83719155507193
6.0515231731934	0.83847477044185
6.0429844386212	0.83975699031403
6.0344697665056	0.84103811853024
6.0259790552764	0.84231805823836
6.0175122039342	0.84359671189956
6.0090691120465	0.84487398129567
6.0006496797438	0.84614976753695
5.9922538077154	0.84742397107008
5.9838813972056	0.84869649168648
5.9755323500100	0.84996722853102
5.9672065684713	0.85123608011090
5.9589039554760	0.85250294430493
5.9506244144502	0.85376771837315
5.9423678493558	0.85503029896668
5.9341341646873	0.85629058213795
5.9259232654675	0.85754846335125
5.9177350572444	0.85880383749356
5.9095694460871	0.86005659888578
5.9014263385827	0.86130664129417
5.8933056418321	0.86255385794222
5.8852072634472	0.86379814152283
5.8771311115468	0.86503938421073
5.8690770947533	0.86627747767535
5.8610451221896	0.86751231309392
5.8530351034752	0.86874378116499
5.8450469487229	0.86997177212217
5.8370805685358	0.87119617574829
5.8291358740035	0.87241688138987
5.8212127766990	0.87363377797186
5.8133111886756	0.87484675401280
5.8054310224632	0.87605569764022
5.7975721910656	0.87726049660645
5.7897346079567	0.87846103830465
5.7819181870781	0.87965720978529
5.7741228428351	0.88084889777284
5.7663484900942	0.88203598868286
5.7585950441798	0.88321836863935
5.7508624208709	0.88439592349246
5.7431505363985	0.88556853883650
5.7354593074421	0.88673610002825
5.7277886511272	0.88789849220562
5.7201384850219	0.88905560030652
5.7125087271341	0.89020730908820
5.7048992959087	0.89135350314668
5.6973101102242	0.89249406693670
5.6897410893908	0.89362888479175
5.6821921531463	0.89475784094455
5.6746632216544	0.89588081954774
5.6671542155009	0.89699770469486
5.6596650556919	0.89810838044161
5.6521956636501	0.89921273082739
5.6447459612126	0.90031063989709
5.6373158706281	0.90140199172314
5.6299053145540	0.90248667042784
5.6225142160540	0.90356456020591
5.6151424985952	0.90463554534729
5.6077900860456	0.90569951026021
5.6004569026714	0.90675633949442
5.5931428731343	0.90780591776472
5.5858479224893	0.90884812997465
5.5785719761816	0.90988286124045
5.5713149600446	0.91090999691513
5.5640768002970	0.91192942261284
5.5568574235403	0.91294102423335
5.5496567567568	0.91394468798676
5.5424747273063	0.91494030041835
5.5353112629247	0.91592774843356
5.5281662917204	0.91690691932326
5.5210397421731	0.91787770078897
5.5139315431304	0.91883998096839
5.5068416238060	0.91979364846093
5.4997699137773	0.92073859235346
5.4927163429828	0.92167470224611
5.4856808417200	0.92260186827814
5.4786633406433	0.92351998115398
5.4716637707611	0.92442893216930
5.4646820634342	0.92532861323713
5.4577181503732	0.92621891691409
5.4507719636364	0.92709973642663
5.4438434356274	0.92797096569730
5.4369324990932	0.92883249937106
5.4300390871219	0.92968423284165
5.4231631331404	0.93052606227786
5.4163045709124	0.93135788464986
5.4094633345363	0.93217959775554
5.4026393584430	0.93299110024672
5.3958325773938	0.93379229165541
5.3890429264785	0.93458307241999
5.3822703411131	0.93536334391128
5.3755147570378	0.93613300845857
5.3687761103152	0.93689196937559
5.3620543373278	0.93764013098631
5.3553493747767	0.93837739865063
5.3486611596789	0.93910367879004
5.3419896293656	0.93981887891301
5.3353347214807	0.94052290764030
5.3286963739780	0.94121567473012
5.3220745251198	0.94189709110305
5.3154691134752	0.94256706886682
5.3088800779175	0.94322552134089
5.3023073576229	0.94387236308081
5.2957508920685	0.94450750990228
5.2892106210303	0.94513087890515
5.2826864845815	0.94574238849695
5.2761784230905	0.94634195841633
5.2696863772192	0.94692950975613
5.2632102879213	0.94750496498623
5.2567500964405	0.94806824797601
5.2503057443082	0.94861928401659
5.2438771733427	0.94915799984271
5.2374643256464	0.94968432365425
5.2310671436050	0.95019818513744
5.2246855698850	0.95069951548574
5.2183195474326	0.95118824742023
5.2119690194715	0.95166431520977
5.2056339295016	0.95212765469067
5.1993142212973	0.95257820328601
5.1930098389052	0.95301590002448
5.1867207266436	0.95344068555888
5.1804468290997	0.95385250218413
5.1741880911288	0.95425129385485
5.1679444578521	0.95463700620251
5.1617158746556	0.95500958655205
5.1555022871883	0.95536898393811
5.1493036413604	0.95571514912071
5.1431198833419	0.95604803460049
5.1369509595613	0.95636759463338
5.1307968167037	0.95667378524488
5.1246574017094	0.95696656424368
5.1185326617722	0.95724589123483
5.1124225443383	0.95751172763243
5.1063269971044	0.95776403667163
5.1002459680163	0.95800278342024
5.0941794052676	0.95822793478971
5.0881272572980	0.95843945954551
5.0820894727920	0.95863732831705
5.0760660006773	0.95882151360691
5.0700567901235	0.95899198979961
5.0640617905405	0.95914873316968
5.0580809515775	0.95929172188923
5.0521142231210	0.95942093603487
5.0461615552937	0.95953635759410
5.0402228984533	0.95963797047098
5.0342982031906	0.95972576049137
5.0283874203287	0.95979971540739
5.0224905009214	0.95985982490136
5.0166073962517	0.95990608058914
5.0107380578305	0.95993847602279
5.0048824373957	0.95995700669269
4.9990404869101	0.95996167002898
4.9932121585610	0.95995246540239
4.9873974047579	0.95992939412451
4.9815961781323	0.95989245944739
4.9758084315353	0.95984166656250
4.9700341180371	0.95977702259911
4.9642731909256	0.95969853662207
4.9585256037049	0.95960621962895
4.9527913100942	0.95950008454652
4.9470702640264	0.95938014622671
4.9413624196473	0.95924642144190
4.9356677313138	0.95909892887961
4.9299861535932	0.95893768913660
4.9243176412615	0.95876272471237
4.9186621493027	0.95857406000203
4.9130196329072	0.95837172128864
4.9073900474709	0.95815573673494
4.9017733485939	0.95792613637441
4.8961694920790	0.95768295210193
4.8905784339315	0.95742621766368
4.8850001303569	0.95715596864663
4.8794345377604	0.95687224246736
4.8738816127459	0.95657507836038
4.8683413121143	0.95626451736590
4.8628135928629	0.95594060231705
4.8572984121841	0.95560337782660
4.8517957274640	0.95525289027307
4.8463054962819	0.95488918778644
4.8408276764088	0.95451232023328
4.8353622258065	0.95412233920140
