#Parameters = {thARC=0.2; nARC=3; thsub=1; p=1; nSub=1.5}
#"Wavelength / um"	"T (158) [Real Part]"
#---------------------------------------
14.989622900000	0.90612811534308
14.937342202292	0.90584545077006
14.885424925521	0.90556077323231
14.833867293419	0.90527409600610
14.782665581854	0.90498543235140
14.731816117936	0.90469479551131
14.681315279138	0.90440219871137
14.631159492435	0.90410765515903
14.581345233463	0.90381117804298
14.531869025691	0.90351278053258
14.482727439614	0.90321247577724
14.433917091960	0.90291027690584
14.385434644914	0.90260619702618
14.337276805356	0.90230024922434
14.289440324118	0.90199244656416
14.241921995249	0.90168280208666
14.194718655303	0.90137132880948
14.147827182633	0.90105803972630
14.101244496707	0.90074294780637
14.054967557431	0.90042606599388
14.008993364486	0.90010740720748
13.963318956684	0.89978698433974
13.917941411328	0.89946481025664
13.872857843591	0.89914089779702
13.828065405904	0.89881525977211
13.783561287356	0.89848790896501
13.739342713107	0.89815885813019
13.695406943810	0.89782811999300
13.651751275046	0.89749570724920
13.608373036768	0.89716163256446
13.565269592760	0.89682590857392
13.522438340099	0.89648854788168
13.479876708633	0.89614956306038
13.437582160466	0.89580896665073
13.395552189455	0.89546677116106
13.353784320713	0.89512298906689
13.312276110124	0.89477763281047
13.271025143869	0.89443071480040
13.230029037952	0.89408224741115
13.189285437747	0.89373224298269
13.148792017544	0.89338071382004
13.108546480105	0.89302767219290
13.068546556234	0.89267313033525
13.028790004346	0.89231710044491
12.989274610052	0.89195959468322
12.949998185745	0.89160062517462
12.910958570198	0.89124020400628
12.872153628167	0.89087834322774
12.833581250000	0.89051505485055
12.795239351259	0.89015035084789
12.757125872340	0.88978424315427
12.719238778108	0.88941674366513
12.681576057530	0.88904786423653
12.644135723323	0.88867761668481
12.606915811606	0.88830601278628
12.569914381551	0.88793306427687
12.533129515050	0.88755878285185
12.496559316382	0.88718318016547
12.460201911887	0.88680626783072
12.424055449648	0.88642805741898
12.388118099174	0.88604856045977
12.352388051092	0.88566778844041
12.316863516845	0.88528575280579
12.281542728390	0.88490246495808
12.246423937908	0.88451793625646
12.211505417515	0.88413217801684
12.176785458976	0.88374520151162
12.142262373431	0.88335701796943
12.107934491115	0.88296763857490
12.073800161095	0.88257707446840
12.039857751004	0.88218533674579
12.006105646776	0.88179243645822
11.972542252396	0.88139838461191
11.939165989646	0.88100319216788
11.905975297855	0.88060687004180
11.872968633663	0.88020942910372
11.840144470774	0.87981088017791
11.807501299724	0.87941123404265
11.775037627651	0.87901050143003
11.742751978065	0.87860869302575
11.710642890625	0.87820581946898
11.678708920919	0.87780189135213
11.646948640249	0.87739691922071
11.615360635413	0.87699091357315
11.583943508501	0.87658388486066
11.552695876686	0.87617584348702
11.521616372022	0.87576679980848
11.490703641242	0.87535676413359
11.459956345566	0.87494574672307
11.429373160503	0.87453375778965
11.398952775665	0.87412080749793
11.368693894577	0.87370690596432
11.338595234493	0.87329206325682
11.308655526217	0.87287628939497
11.278873513920	0.87245959434970
11.249247954972	0.87204198804326
11.219777619760	0.87162348034907
11.190461291527	0.87120408109163
11.161297766195	0.87078380004645
11.132285852209	0.87036264693995
11.103424370370	0.86994063144934
11.074712153676	0.86951776320259
11.046148047163	0.86909405177831
11.017730907755	0.86866950670568
10.989459604106	0.86824413746443
10.961333016453	0.86781795348471
10.933350036470	0.86739096414707
10.905509567115	0.86696317878237
10.877810522496	0.86653460667179
10.850251827723	0.86610525704671
10.822832418773	0.86567513908870
10.795551242348	0.86524426192949
10.768407255747	0.86481263465092
10.741399426729	0.86438026628491
10.714526733381	0.86394716581343
10.687788163993	0.86351334216848
10.661182716927	0.86307880423208
10.634709400497	0.86264356083623
10.608367232838	0.86220762076293
10.582155241793	0.86177099274413
10.556072464789	0.86133368546176
10.530117948718	0.86089570754774
10.504290749825	0.86045706758393
10.478589933590	0.86001777410217
10.453014574616	0.85957783558432
10.427563756522	0.85913726046220
10.402236571825	0.85869605711768
10.377032121841	0.85825423388266
10.351949516575	0.85781179903910
10.326987874612	0.85736876081905
10.302146323024	0.85692512740470
10.277423997257	0.85648090692837
10.252820041040	0.85603610747259
10.228333606278	0.85559073707013
10.203963852961	0.85514480370404
10.179709949066	0.85469831530768
10.155571070461	0.85425127976481
10.131546400811	0.85380370490961
10.107635131490	0.85335559852674
10.083836461487	0.85290696835143
10.060149597315	0.85245782206951
10.036573752929	0.85200816731749
10.013108149633	0.85155801168261
9.9897520159947	0.85110736270295
9.9665045877660	0.85065622786748
9.9433651077944	0.85020461461612
9.9203328259431	0.84975253033986
9.8974069990096	0.84929998238082
9.8745868906456	0.84884697803234
9.8518717712783	0.84839352453906
9.8292609180328	0.84793962909702
9.8067536146549	0.84748529885376
9.7843491514360	0.84703054090840
9.7620468251384	0.84657536231177
9.7398459389214	0.84611977006646
9.7177458022690	0.84566377112697
9.6957457309185	0.84520737239979
9.6738450467893	0.84475058074354
9.6520430779137	0.84429340296904
9.6303391583681	0.84383584583945
9.6087326282051	0.84337791607039
9.5872228333866	0.84291962033002
9.5658091257179	0.84246096523924
9.5444908627826	0.84200195737170
9.5232674078780	0.84154260325403
9.5021381299525	0.84108290936592
9.4811024035421	0.84062288214022
9.4601596087094	0.84016252796316
9.4393091309824	0.83970185317437
9.4185503612944	0.83924086406711
9.3978826959248	0.83877956688836
9.3773055364404	0.83831796783898
9.3568182896380	0.83785607307381
9.3364203674868	0.83739388870189
9.3161111870727	0.83693142078652
9.2958901705426	0.83646867534547
9.2757567450495	0.83600565835110
9.2557103426984	0.83554237573052
9.2357504004929	0.83507883336572
9.2158763602828	0.83461503709377
9.1960876687117	0.83415099270692
9.1763837771656	0.83368670595282
9.1567641417227	0.83322218253460
9.1372282231027	0.83275742811112
9.1177754866180	0.83229244829706
9.0984054021244	0.83182724866311
9.0791174439733	0.83136183473615
9.0599110909640	0.83089621199939
9.0407858262967	0.83043038589257
9.0217411375263	0.82996436181210
9.0027765165165	0.82949814511122
8.9838914593947	0.82903174110023
8.9650854665072	0.82856515504660
8.9463580423754	0.82809839217518
8.9277086956522	0.82763145766839
8.9091369390788	0.82716435666635
8.8906422894425	0.82669709426708
8.8722242675348	0.82622967552672
8.8538823981099	0.82576210545963
8.8356162098438	0.82529438903866
8.8174252352941	0.82482653119527
8.7993090108600	0.82435853681973
8.7812670767428	0.82389041076133
8.7632989769073	0.82342215782854
8.7454042590432	0.82295378278921
8.7275824745269	0.82248529037074
8.7098331783847	0.82201668526030
8.6921559292549	0.82154797210499
8.6745502893519	0.82107915551207
8.6570158244297	0.82061024004911
8.6395521037464	0.82014123024420
8.6221587000288	0.81967213058615
8.6048351894374	0.81920294552468
8.5875811515325	0.81873367947063
8.5703961692396	0.81826433679612
8.5532798288160	0.81779492183478
8.5362317198178	0.81732543888194
8.5192514350668	0.81685589219482
8.5023385706183	0.81638628599275
8.4854927257288	0.81591662445734
8.4687135028249	0.81544691173270
8.4520005074711	0.81497715192564
8.4353533483399	0.81450734910587
8.4187716371806	0.81403750730620
8.4022549887892	0.81356763052274
8.3858030209790	0.81309772271513
8.3694153545505	0.81262778780669
8.3530916132627	0.81215782968467
8.3368314238042	0.81168785220046
8.3206344157646	0.81121785916974
8.3045002216066	0.81074785437275
8.2884284766381	0.81027784155447
8.2724188189845	0.80980782442480
8.2564708895621	0.80933780665883
8.2405843320506	0.80886779189696
8.2247587928669	0.80839778374521
8.2089939211391	0.80792778577534
8.1932893686800	0.80745780152511
8.1776447899618	0.80698783449846
8.1620598420909	0.80651788816573
8.1465341847826	0.80604796596388
8.1310674803363	0.80557807129669
8.1156593936113	0.80510820753496
8.1003095920022	0.80463837801672
8.0850177454153	0.80416858604746
8.0697835262450	0.80369883490032
8.0546066093498	0.80322912781631
8.0394866720300	0.80275946800452
8.0244233940043	0.80228985864232
8.0094164573871	0.80182030287559
7.9944655466667	0.80135080381889
7.9795703486825	0.80088136455572
7.9647305526036	0.80041198813871
7.9499458499072	0.79994267758982
7.9352159343568	0.79947343590056
7.9205405019815	0.79900426603220
7.9059192510549	0.79853517091598
7.8913518820742	0.79806615345331
7.8768380977404	0.79759721651600
7.8623776029373	0.79712836294647
7.8479701047120	0.79665959555792
7.8336153122550	0.79619091713460
7.8193129368805	0.79572233043197
7.8050626920073	0.79525383817693
7.7908642931393	0.79478544306803
7.7767174578470	0.79431714777570
7.7626219057483	0.79384895494239
7.7485773584906	0.79338086718286
7.7345835397317	0.79291288708435
7.7206401751223	0.79244501720679
7.7067469922879	0.79197726008299
7.6929037208109	0.79150961821890
7.6791100922131	0.79104209409377
7.6653658399386	0.79057469016036
7.6516706993364	0.79010740884519
7.6380244076433	0.78964025254869
7.6244267039674	0.78917322364546
7.6108773292714	0.78870632448442
7.5973760263558	0.78823955738906
7.5839225398432	0.78777292465763
7.5705166161616	0.78730642856335
7.5571580035291	0.78684007135460
7.5438464519376	0.78637385525515
7.5305817131374	0.78590778246433
7.5173635406219	0.78544185515727
7.5041916896120	0.78497607548506
7.4910659170415	0.78451044557501
7.4779859815415	0.78404496753080
7.4649516434263	0.78357964343270
7.4519626646781	0.78311447533778
7.4390188089330	0.78264946528010
7.4261198414664	0.78218461527092
7.4132655291790	0.78171992729889
7.4004556405826	0.78125540333024
7.3876899457861	0.78079104530902
7.3749682164822	0.78032685515725
7.3622902259332	0.77986283477514
7.3496557489581	0.77939898604129
7.3370645619187	0.77893531081287
7.3245164427071	0.77847181092585
7.3120111707317	0.77800848819515
7.2995485269053	0.77754534441488
7.2871282936315	0.77708238135849
7.2747502547925	0.77661960077901
7.2624141957364	0.77615700440920
7.2501199032648	0.77569459396177
7.2378671656205	0.77523237112957
7.2256557724753	0.77477033758577
7.2134855149182	0.77430849498405
7.2013561854432	0.77384684495881
7.1892675779376	0.77338538912533
7.1772194876706	0.77292412907999
7.1652117112811	0.77246306640043
7.1532440467669	0.77200220264577
7.1413162934731	0.77154153935675
7.1294282520809	0.77108107805595
7.1175797245964	0.77062082024799
7.1057705143399	0.77016076741966
7.0940004259347	0.76970092104017
7.0822692652965	0.76924128256127
7.0705768396226	0.76878185341748
7.0589229573817	0.76832263502625
7.0473074283028	0.76786362878814
7.0357300633654	0.76740483608703
7.0241906747891	0.76694625829024
7.0126890760234	0.76648789674877
7.0012250817375	0.76602975279744
6.9897985078107	0.76557182775508
6.9784091713222	0.76511412292473
6.9670568905415	0.76465663959375
6.9557414849188	0.76419937903407
6.9444627750753	0.76374234250232
6.9332205827937	0.76328553124001
6.9220147310090	0.76282894647373
6.9108450437990	0.76237258941527
6.8997113463751	0.76191646126184
6.8886134650735	0.76146056319622
6.8775512273457	0.76100489638691
6.8665244617499	0.76054946198835
6.8555329979419	0.76009426114104
6.8445766666667	0.75963929497171
6.8336552997493	0.75918456459354
6.8227687300865	0.75873007110624
6.8119167916383	0.75827581559630
6.8010993194192	0.75782179913708
6.7903161494904	0.75736802278903
6.7795671189507	0.75691448759982
6.7688520659291	0.75646119460451
6.7581708295762	0.75600814482570
6.7475232500563	0.75555533927373
6.7369091685393	0.75510277894677
6.7263284271932	0.75465046483104
6.7157808691756	0.75419839790094
6.7052663386267	0.75374657911920
6.6947846806610	0.75329500943704
6.6843357413601	0.75284368979436
6.6739193677649	0.75239262111982
6.6635354078684	0.75194180433105
6.6531837106081	0.75149124033480
6.6428641258586	0.75104093002705
6.6325765044248	0.75059087429321
6.6223206980340	0.75014107400823
6.6120965593295	0.74969153003676
6.6019039418630	0.74924224323331
6.5917427000879	0.74879321444239
6.5816126893524	0.74834444449863
6.5715137658922	0.74789593422697
6.5614457868243	0.74744768444277
6.5514086101399	0.74699969595196
6.5414020946978	0.74655196955118
6.5314261002179	0.74610450602794
6.5214804872743	0.74565730616072
6.5115651172893	0.74521037071916
6.5016798525266	0.74476370046414
6.4918245560849	0.74431729614799
6.4819990918919	0.74387115851455
6.4722033246978	0.74342528829935
6.4624371200690	0.74297968622973
6.4527003443823	0.74253435302500
6.4429928648184	0.74208928939652
6.4333145493562	0.74164449604788
6.4236652667667	0.74119997367501
6.4140448866068	0.74075572296631
6.4044532792138	0.74031174460277
6.3948903156997	0.73986803925814
6.3853558679446	0.73942460759898
6.3758498085921	0.73898145028488
6.3663720110427	0.73853856796851
6.3569223494487	0.73809596129576
6.3475006987084	0.73765363090590
6.3381069344609	0.73721157743167
6.3287409330800	0.73676980149940
6.3194025716695	0.73632830372914
6.3100917280572	0.73588708473478
6.3008082807902	0.73544614512417
6.2915521091291	0.73500548549922
6.2823230930427	0.73456510645605
6.2731211132036	0.73412500858507
6.2639460509820	0.73368519247112
6.2547977884415	0.73324565869357
6.2456762083333	0.73280640782644
6.2365811940919	0.73236744043851
6.2275126298297	0.73192875709343
6.2184704003319	0.73149035834983
6.2094543910522	0.73105224476143
6.2004644881075	0.73061441687716
6.1915005782734	0.73017687524123
6.1825625489792	0.72973962039328
6.1736502883031	0.72930265286848
6.1647636849681	0.72886597319759
6.1559026283368	0.72842958190712
6.1470670084068	0.72799347951939
6.1382567158067	0.72755766655268
6.1294716417910	0.72712214352126
6.1207116782360	0.72668691093557
6.1119767176351	0.72625196930224
6.1032666530945	0.72581731912427
6.0945813783289	0.72538296090105
6.0859207876573	0.72494889512850
6.0772847759984	0.72451512229918
6.0686732388664	0.72408164290232
6.0600860723671	0.72364845742397
6.0515231731934	0.72321556634710
6.0429844386212	0.72278297015164
6.0344697665056	0.72235066931459
6.0259790552764	0.72191866431016
6.0175122039342	0.72148695560976
6.0090691120465	0.72105554368220
6.0006496797438	0.72062442899369
5.9922538077154	0.72019361200795
5.9838813972056	0.71976309318634
5.9755323500100	0.71933287298786
5.9672065684713	0.71890295186932
5.9589039554760	0.71847333028535
5.9506244144502	0.71804400868855
5.9423678493558	0.71761498752951
5.9341341646873	0.71718626725691
5.9259232654675	0.71675784831762
5.9177350572444	0.71632973115676
5.9095694460871	0.71590191621777
5.9014263385827	0.71547440394249
5.8933056418321	0.71504719477125
5.8852072634472	0.71462028914294
5.8771311115468	0.71419368749505
5.8690770947533	0.71376739026381
5.8610451221896	0.71334139788418
5.8530351034752	0.71291571078999
5.8450469487229	0.71249032941398
5.8370805685358	0.71206525418786
5.8291358740035	0.71164048554240
5.8212127766990	0.71121602390748
5.8133111886756	0.71079186971216
5.8054310224632	0.71036802338476
5.7975721910656	0.70994448535291
5.7897346079567	0.70952125604361
5.7819181870781	0.70909833588331
5.7741228428351	0.70867572529796
5.7663484900942	0.70825342471307
5.7585950441798	0.70783143455378
5.7508624208709	0.70740975524491
5.7431505363985	0.70698838721102
5.7354593074421	0.70656733087647
5.7277886511272	0.70614658666548
5.7201384850219	0.70572615500219
5.7125087271341	0.70530603631070
5.7048992959087	0.70488623101514
5.6973101102242	0.70446673953970
5.6897410893908	0.70404756230872
5.6821921531463	0.70362869974671
5.6746632216544	0.70321015227843
5.6671542155009	0.70279192032890
5.6596650556919	0.70237400432349
5.6521956636501	0.70195640468793
5.6447459612126	0.70153912184841
5.6373158706281	0.70112215623158
5.6299053145540	0.70070550826461
5.6225142160540	0.70028917837524
5.6151424985952	0.69987316699182
5.6077900860456	0.69945747454338
5.6004569026714	0.69904210145963
5.5931428731343	0.69862704817101
5.5858479224893	0.69821231510877
5.5785719761816	0.69779790270497
5.5713149600446	0.69738381139255
5.5640768002970	0.69697004160532
5.5568574235403	0.69655659377807
5.5496567567568	0.69614346834655
5.5424747273063	0.69573066574753
5.5353112629247	0.69531818641884
5.5281662917204	0.69490603079938
5.5210397421731	0.69449419932919
5.5139315431304	0.69408269244945
5.5068416238060	0.69367151060256
5.4997699137773	0.69326065423210
5.4927163429828	0.69285012378294
5.4856808417200	0.69243991970121
5.4786633406433	0.69203004243437
5.4716637707611	0.69162049243120
5.4646820634342	0.69121127014188
5.4577181503732	0.69080237601798
5.4507719636364	0.69039381051249
5.4438434356274	0.68998557407985
5.4369324990932	0.68957766717601
5.4300390871219	0.68917009025837
5.4231631331404	0.68876284378592
5.4163045709124	0.68835592821915
5.4094633345363	0.68794934402015
5.4026393584430	0.68754309165260
5.3958325773938	0.68713717158182
5.3890429264785	0.68673158427472
5.3822703411131	0.68632633019993
5.3755147570378	0.68592140982770
5.3687761103152	0.68551682363002
5.3620543373278	0.68511257208058
5.3553493747767	0.68470865565479
5.3486611596789	0.68430507482983
5.3419896293656	0.68390183008464
5.3353347214807	0.68349892189993
5.3286963739780	0.68309635075821
5.3220745251198	0.68269411714380
5.3154691134752	0.68229222154284
5.3088800779175	0.68189066444332
5.3023073576229	0.68148944633505
5.2957508920685	0.68108856770972
5.2892106210303	0.68068802906088
5.2826864845815	0.68028783088396
5.2761784230905	0.67988797367628
5.2696863772192	0.67948845793707
5.2632102879213	0.67908928416743
5.2567500964405	0.67869045287042
5.2503057443082	0.67829196455098
5.2438771733427	0.67789381971600
5.2374643256464	0.67749601887429
5.2310671436050	0.67709856253662
5.2246855698850	0.67670145121567
5.2183195474326	0.67630468542609
5.2119690194715	0.67590826568447
5.2056339295016	0.67551219250936
5.1993142212973	0.67511646642125
5.1930098389052	0.67472108794260
5.1867207266436	0.67432605759782
5.1804468290997	0.67393137591328
5.1741880911288	0.67353704341730
5.1679444578521	0.67314306064017
5.1617158746556	0.67274942811414
5.1555022871883	0.67235614637338
5.1493036413604	0.67196321595405
5.1431198833419	0.67157063739423
5.1369509595613	0.67117841123397
5.1307968167037	0.67078653801524
5.1246574017094	0.67039501828196
5.1185326617722	0.67000385257996
5.1124225443383	0.66961304145703
5.1063269971044	0.66922258546285
5.1002459680163	0.66883248514902
5.0941794052676	0.66844274106906
5.0881272572980	0.66805335377836
5.0820894727920	0.66766432383422
5.0760660006773	0.66727565179582
5.0700567901235	0.66688733822421
5.0640617905405	0.66649938368229
5.0580809515775	0.66611178873483
5.0521142231210	0.66572455394842
5.0461615552937	0.66533767989151
5.0402228984533	0.66495116713433
5.0342982031906	0.66456501624894
5.0283874203287	0.66417922780918
5.0224905009214	0.66379380239070
5.0166073962517	0.66340874057086
5.0107380578305	0.66302404292884
5.0048824373957	0.66263971004549
4.9990404869101	0.66225574250344
4.9932121585610	0.66187214088698
4.9873974047579	0.66148890578213
4.9815961781323	0.66110603777657
4.9758084315353	0.66072353745961
4.9700341180371	0.66034140542225
4.9642731909256	0.65995964225709
4.9585256037049	0.65957824855832
4.9527913100942	0.65919722492173
4.9470702640264	0.65881657194469
4.9413624196473	0.65843629022609
4.9356677313138	0.65805638036638
4.9299861535932	0.65767684296749
4.9243176412615	0.65729767863286
4.9186621493027	0.65691888796737
4.9130196329072	0.65654047157737
4.9073900474709	0.65616243007063
4.9017733485939	0.65578476405630
4.8961694920790	0.65540747414492
4.8905784339315	0.65503056094840
4.8850001303569	0.65465402507997
4.8794345377604	0.65427786715416
4.8738816127459	0.65390208778679
4.8683413121143	0.65352668759495
4.8628135928629	0.65315166719695
4.8572984121841	0.65277702721232
4.8517957274640	0.65240276826176
4.8463054962819	0.65202889096715
4.8408276764088	0.65165539595148
4.8353622258065	0.65128228383886
