#Parameters = {thARC=0.2; nARC=1.75; thsub=1; p=1; nSub=1.75}
#"Wavelength / um"	"T (182) [Real Part]"
#---------------------------------------
14.989622900000	0.92561989269275
14.937342202292	0.92567635558693
14.885424925521	0.92573189734391
14.833867293419	0.92578652495346
14.782665581854	0.92584024539378
14.731816117936	0.92589306563114
14.681315279138	0.92594499261966
14.631159492435	0.92599603330106
14.581345233463	0.92604619460435
14.531869025691	0.92609548344558
14.482727439614	0.92614390672758
14.433917091960	0.92619147133973
14.385434644914	0.92623818415765
14.337276805356	0.92628405204298
14.289440324118	0.92632908184311
14.241921995249	0.92637328039095
14.194718655303	0.92641665450466
14.147827182633	0.92645921098741
14.101244496707	0.92650095662715
14.054967557431	0.92654189819636
14.008993364486	0.92658204245178
13.963318956684	0.92662139613424
13.917941411328	0.92665996596836
13.872857843591	0.92669775866235
13.828065405904	0.92673478090777
13.783561287356	0.92677103937933
13.739342713107	0.92680654073460
13.695406943810	0.92684129161387
13.651751275046	0.92687529863984
13.608373036768	0.92690856841749
13.565269592760	0.92694110753379
13.522438340099	0.92697292255754
13.479876708633	0.92700402003910
13.437582160466	0.92703440651026
13.395552189455	0.92706408848394
13.353784320713	0.92709307245407
13.312276110124	0.92712136489533
13.271025143869	0.92714897226298
13.230029037952	0.92717590099263
13.189285437747	0.92720215750007
13.148792017544	0.92722774818110
13.108546480105	0.92725267941127
13.068546556234	0.92727695754576
13.028790004346	0.92730058891913
12.989274610052	0.92732357984521
12.949998185745	0.92734593661683
12.910958570198	0.92736766550573
12.872153628167	0.92738877276231
12.833581250000	0.92740926461549
12.795239351259	0.92742914727253
12.757125872340	0.92744842691886
12.719238778108	0.92746710971791
12.681576057530	0.92748520181094
12.644135723323	0.92750270931688
12.606915811606	0.92751963833216
12.569914381551	0.92753599493056
12.533129515050	0.92755178516307
12.496559316382	0.92756701505767
12.460201911887	0.92758169061927
12.424055449648	0.92759581782947
12.388118099174	0.92760940264648
12.352388051092	0.92762245100492
12.316863516845	0.92763496881571
12.281542728390	0.92764696196594
12.246423937908	0.92765843631867
12.211505417515	0.92766939771285
12.176785458976	0.92767985196317
12.142262373431	0.92768980485991
12.107934491115	0.92769926216883
12.073800161095	0.92770822963102
12.039857751004	0.92771671296280
12.006105646776	0.92772471785558
11.972542252396	0.92773224997571
11.939165989646	0.92773931496441
11.905975297855	0.92774591843764
11.872968633663	0.92775206598594
11.840144470774	0.92775776317438
11.807501299724	0.92776301554238
11.775037627651	0.92776782860369
11.742751978065	0.92777220784617
11.710642890625	0.92777615873178
11.678708920919	0.92777968669644
11.646948640249	0.92778279714990
11.615360635413	0.92778549547571
11.583943508501	0.92778778703104
11.552695876686	0.92778967714665
11.521616372022	0.92779117112678
11.490703641242	0.92779227424903
11.459956345566	0.92779299176430
11.429373160503	0.92779332889670
11.398952775665	0.92779329084345
11.368693894577	0.92779288277484
11.338595234493	0.92779210983406
11.308655526217	0.92779097713722
11.278873513920	0.92778948977322
11.249247954972	0.92778765280368
11.219777619760	0.92778547126286
11.190461291527	0.92778295015762
11.161297766195	0.92778009446732
11.132285852209	0.92777690914377
11.103424370370	0.92777339911114
11.074712153676	0.92776956926592
11.046148047163	0.92776542447687
11.017730907755	0.92776096958492
10.989459604106	0.92775620940314
10.961333016453	0.92775114871669
10.933350036470	0.92774579228273
10.905509567115	0.92774014483041
10.877810522496	0.92773421106080
10.850251827723	0.92772799564684
10.822832418773	0.92772150323328
10.795551242348	0.92771473843668
10.768407255747	0.92770770584531
10.741399426729	0.92770041001916
10.714526733381	0.92769285548985
10.687788163993	0.92768504676063
10.661182716927	0.92767698830635
10.634709400497	0.92766868457338
10.608367232838	0.92766013997963
10.582155241793	0.92765135891447
10.556072464789	0.92764234573874
10.530117948718	0.92763310478472
10.504290749825	0.92762364035606
10.478589933590	0.92761395672783
10.453014574616	0.92760405814642
10.427563756522	0.92759394882957
10.402236571825	0.92758363296635
10.377032121841	0.92757311471711
10.351949516575	0.92756239821350
10.326987874612	0.92755148755842
10.302146323024	0.92754038682604
10.277423997257	0.92752910006179
10.252820041040	0.92751763128232
10.228333606278	0.92750598447551
10.203963852961	0.92749416360048
10.179709949066	0.92748217258756
10.155571070461	0.92747001533829
10.131546400811	0.92745769572545
10.107635131490	0.92744521759301
10.083836461487	0.92743258475617
10.060149597315	0.92741980100136
10.036573752929	0.92740687008622
10.013108149633	0.92739379573964
9.9897520159947	0.92738058166175
9.9665045877660	0.92736723152390
9.9433651077944	0.92735374896875
9.9203328259431	0.92734013761019
9.8974069990096	0.92732640103343
9.8745868906456	0.92731254279496
9.8518717712783	0.92729856642260
9.8292609180328	0.92728447541550
9.8067536146549	0.92727027324418
9.7843491514360	0.92725596335053
9.7620468251384	0.92724154914783
9.7398459389214	0.92722703402079
9.7177458022690	0.92721242132557
9.6957457309185	0.92719771438982
9.6738450467893	0.92718291651267
9.6520430779137	0.92716803096478
9.6303391583681	0.92715306098839
9.6087326282051	0.92713800979731
9.5872228333866	0.92712288057701
9.5658091257179	0.92710767648459
9.5444908627826	0.92709240064885
9.5232674078780	0.92707705617035
9.5021381299525	0.92706164612138
9.4811024035421	0.92704617354607
9.4601596087094	0.92703064146039
9.4393091309824	0.92701505285220
9.4185503612944	0.92699941068132
9.3978826959248	0.92698371787951
9.3773055364404	0.92696797735058
9.3568182896380	0.92695219197042
9.3364203674868	0.92693636458702
9.3161111870727	0.92692049802055
9.2958901705426	0.92690459506339
9.2757567450495	0.92688865848020
9.2557103426984	0.92687269100797
9.2357504004929	0.92685669535604
9.2158763602828	0.92684067420621
9.1960876687117	0.92682463021275
9.1763837771656	0.92680856600247
9.1567641417227	0.92679248417481
9.1372282231027	0.92677638730184
9.1177754866180	0.92676027792836
9.0984054021244	0.92674415857196
9.0791174439733	0.92672803172306
9.0599110909640	0.92671189984501
9.0407858262967	0.92669576537412
9.0217411375263	0.92667963071973
9.0027765165165	0.92666349826430
8.9838914593947	0.92664737036344
8.9650854665072	0.92663124934603
8.9463580423754	0.92661513751424
8.9277086956522	0.92659903714361
8.9091369390788	0.92658295048315
8.8906422894425	0.92656687975540
8.8722242675348	0.92655082715646
8.8538823981099	0.92653479485614
8.8356162098438	0.92651878499798
8.8174252352941	0.92650279969933
8.7993090108600	0.92648684105146
8.7812670767428	0.92647091111961
8.7632989769073	0.92645501194306
8.7454042590432	0.92643914553524
8.7275824745269	0.92642331388380
8.7098331783847	0.92640751895067
8.6921559292549	0.92639176267217
8.6745502893519	0.92637604695908
8.6570158244297	0.92636037369672
8.6395521037464	0.92634474474505
8.6221587000288	0.92632916193874
8.6048351894374	0.92631362708727
8.5875811515325	0.92629814197498
8.5703961692396	0.92628270836124
8.5532798288160	0.92626732798043
8.5362317198178	0.92625200254212
8.5192514350668	0.92623673373112
8.5023385706183	0.92622152320757
8.4854927257288	0.92620637260704
8.4687135028249	0.92619128354062
8.4520005074711	0.92617625759502
8.4353533483399	0.92616129633265
8.4187716371806	0.92614640129173
8.4022549887892	0.92613157398637
8.3858030209790	0.92611681590669
8.3694153545505	0.92610212851887
8.3530916132627	0.92608751326531
8.3368314238042	0.92607297156468
8.3206344157646	0.92605850481204
8.3045002216066	0.92604411437892
8.2884284766381	0.92602980161347
8.2724188189845	0.92601556784048
8.2564708895621	0.92600141436156
8.2405843320506	0.92598734245519
8.2247587928669	0.92597335337686
8.2089939211391	0.92595944835912
8.1932893686800	0.92594562861175
8.1776447899618	0.92593189532183
8.1620598420909	0.92591824965382
8.1465341847826	0.92590469274972
8.1310674803363	0.92589122572914
8.1156593936113	0.92587784968941
8.1003095920022	0.92586456570570
8.0850177454153	0.92585137483112
8.0697835262450	0.92583827809682
8.0546066093498	0.92582527651210
8.0394866720300	0.92581237106456
8.0244233940043	0.92579956272015
8.0094164573871	0.92578685242330
7.9944655466667	0.92577424109706
7.9795703486825	0.92576172964317
7.9647305526036	0.92574931894220
7.9499458499072	0.92573700985365
7.9352159343568	0.92572480321606
7.9205405019815	0.92571269984715
7.9059192510549	0.92570070054388
7.8913518820742	0.92568880608261
7.8768380977404	0.92567701721922
7.8623776029373	0.92566533468918
7.8479701047120	0.92565375920770
7.8336153122550	0.92564229146984
7.8193129368805	0.92563093215061
7.8050626920073	0.92561968190512
7.7908642931393	0.92560854136867
7.7767174578470	0.92559751115685
7.7626219057483	0.92558659186572
7.7485773584906	0.92557578407187
7.7345835397317	0.92556508833255
7.7206401751223	0.92555450518582
7.7067469922879	0.92554403515062
7.6929037208109	0.92553367872694
7.6791100922131	0.92552343639590
7.6653658399386	0.92551330861990
7.6516706993364	0.92550329584270
7.6380244076433	0.92549339848961
7.6244267039674	0.92548361696752
7.6108773292714	0.92547395166510
7.5973760263558	0.92546440295290
7.5839225398432	0.92545497118343
7.5705166161616	0.92544565669135
7.5571580035291	0.92543645979353
7.5438464519376	0.92542738078923
7.5305817131374	0.92541841996018
7.5173635406219	0.92540957757071
7.5041916896120	0.92540085386790
7.4910659170415	0.92539224908168
7.4779859815415	0.92538376342494
7.4649516434263	0.92537539709371
7.4519626646781	0.92536715026723
7.4390188089330	0.92535902310808
7.4261198414664	0.92535101576235
7.4132655291790	0.92534312835970
7.4004556405826	0.92533536101355
7.3876899457861	0.92532771382116
7.3749682164822	0.92532018686377
7.3622902259332	0.92531278020673
7.3496557489581	0.92530549389963
7.3370645619187	0.92529832797641
7.3245164427071	0.92529128245549
7.3120111707317	0.92528435733993
7.2995485269053	0.92527755261750
7.2871282936315	0.92527086826085
7.2747502547925	0.92526430422762
7.2624141957364	0.92525786046057
7.2501199032648	0.92525153688773
7.2378671656205	0.92524533342246
7.2256557724753	0.92523924996367
7.2134855149182	0.92523328639588
7.2013561854432	0.92522744258936
7.1892675779376	0.92522171840028
7.1772194876706	0.92521611367084
7.1652117112811	0.92521062822934
7.1532440467669	0.92520526189039
7.1413162934731	0.92520001445498
7.1294282520809	0.92519488571064
7.1175797245964	0.92518987543155
7.1057705143399	0.92518498337867
7.0940004259347	0.92518020929988
7.0822692652965	0.92517555293010
7.0705768396226	0.92517101399141
7.0589229573817	0.92516659219320
7.0473074283028	0.92516228723230
7.0357300633654	0.92515809879307
7.0241906747891	0.92515402654756
7.0126890760234	0.92515007015564
7.0012250817375	0.92514622926514
6.9897985078107	0.92514250351192
6.9784091713222	0.92513889252008
6.9670568905415	0.92513539590201
6.9557414849188	0.92513201325860
6.9444627750753	0.92512874417928
6.9332205827937	0.92512558824222
6.9220147310090	0.92512254501445
6.9108450437990	0.92511961405192
6.8997113463751	0.92511679489973
6.8886134650735	0.92511408709218
6.8775512273457	0.92511149015294
6.8665244617499	0.92510900359515
6.8555329979419	0.92510662692158
6.8445766666667	0.92510435962473
6.8336552997493	0.92510220118697
6.8227687300865	0.92510015108068
6.8119167916383	0.92509820876835
6.8010993194192	0.92509637370274
6.7903161494904	0.92509464532696
6.7795671189507	0.92509302307466
6.7688520659291	0.92509150637012
6.7581708295762	0.92509009462838
6.7475232500563	0.92508878725536
6.7369091685393	0.92508758364802
6.7263284271932	0.92508648319445
6.7157808691756	0.92508548527402
6.7052663386267	0.92508458925749
6.6947846806610	0.92508379450715
6.6843357413601	0.92508310037696
6.6739193677649	0.92508250621262
6.6635354078684	0.92508201135178
6.6531837106081	0.92508161512409
6.6428641258586	0.92508131685136
6.6325765044248	0.92508111584770
6.6223206980340	0.92508101141961
6.6120965593295	0.92508100286613
6.6019039418630	0.92508108947896
6.5917427000879	0.92508127054258
6.5816126893524	0.92508154533439
6.5715137658922	0.92508191312480
6.5614457868243	0.92508237317739
6.5514086101399	0.92508292474904
6.5414020946978	0.92508356709001
6.5314261002179	0.92508429944408
6.5214804872743	0.92508512104872
6.5115651172893	0.92508603113515
6.5016798525266	0.92508702892849
6.4918245560849	0.92508811364788
6.4819990918919	0.92508928450661
6.4722033246978	0.92509054071225
6.4624371200690	0.92509188146672
6.4527003443823	0.92509330596649
6.4429928648184	0.92509481340264
6.4333145493562	0.92509640296101
6.4236652667667	0.92509807382230
6.4140448866068	0.92509982516223
6.4044532792138	0.92510165615161
6.3948903156997	0.92510356595649
6.3853558679446	0.92510555373829
6.3758498085921	0.92510761865389
6.3663720110427	0.92510975985576
6.3569223494487	0.92511197649208
6.3475006987084	0.92511426770689
6.3381069344609	0.92511663264013
6.3287409330800	0.92511907042785
6.3194025716695	0.92512158020227
6.3100917280572	0.92512416109189
6.3008082807902	0.92512681222166
6.2915521091291	0.92512953271306
6.2823230930427	0.92513232168419
6.2731211132036	0.92513517824995
6.2639460509820	0.92513810152211
6.2547977884415	0.92514109060945
6.2456762083333	0.92514414461784
6.2365811940919	0.92514726265039
6.2275126298297	0.92515044380755
6.2184704003319	0.92515368718723
6.2094543910522	0.92515699188489
6.2004644881075	0.92516035699370
6.1915005782734	0.92516378160459
6.1825625489792	0.92516726480641
6.1736502883031	0.92517080568604
6.1647636849681	0.92517440332847
6.1559026283368	0.92517805681694
6.1470670084068	0.92518176523304
6.1382567158067	0.92518552765679
6.1294716417910	0.92518934316684
6.1207116782360	0.92519321084046
6.1119767176351	0.92519712975373
6.1032666530945	0.92520109898165
6.0945813783289	0.92520511759818
6.0859207876573	0.92520918467641
6.0772847759984	0.92521329928867
6.0686732388664	0.92521746050658
6.0600860723671	0.92522166740122
6.0515231731934	0.92522591904318
6.0429844386212	0.92523021450271
6.0344697665056	0.92523455284981
6.0259790552764	0.92523893315431
6.0175122039342	0.92524335448601
6.0090691120465	0.92524781591478
6.0006496797438	0.92525231651062
5.9922538077154	0.92525685534381
5.9838813972056	0.92526143148501
5.9755323500100	0.92526604400533
5.9672065684713	0.92527069197643
5.9589039554760	0.92527537447067
5.9506244144502	0.92528009056117
5.9423678493558	0.92528483932189
5.9341341646873	0.92528961982780
5.9259232654675	0.92529443115489
5.9177350572444	0.92529927238035
5.9095694460871	0.92530414258259
5.9014263385827	0.92530904084141
5.8933056418321	0.92531396623804
5.8852072634472	0.92531891785528
5.8771311115468	0.92532389477753
5.8690770947533	0.92532889609098
5.8610451221896	0.92533392088361
5.8530351034752	0.92533896824534
5.8450469487229	0.92534403726812
5.8370805685358	0.92534912704598
5.8291358740035	0.92535423667517
5.8212127766990	0.92535936525424
5.8133111886756	0.92536451188410
5.8054310224632	0.92536967566815
5.7975721910656	0.92537485571235
5.7897346079567	0.92538005112531
5.7819181870781	0.92538526101837
5.7741228428351	0.92539048450572
5.7663484900942	0.92539572070443
5.7585950441798	0.92540096873461
5.7508624208709	0.92540622771942
5.7431505363985	0.92541149678522
5.7354593074421	0.92541677506161
5.7277886511272	0.92542206168155
5.7201384850219	0.92542735578139
5.7125087271341	0.92543265650101
5.7048992959087	0.92543796298389
5.6973101102242	0.92544327437714
5.6897410893908	0.92544858983167
5.6821921531463	0.92545390850219
5.6746632216544	0.92545922954734
5.6671542155009	0.92546455212972
5.6596650556919	0.92546987541603
5.6521956636501	0.92547519857710
5.6447459612126	0.92548052078800
5.6373158706281	0.92548584122807
5.6299053145540	0.92549115908107
5.6225142160540	0.92549647353515
5.6151424985952	0.92550178378305
5.6077900860456	0.92550708902206
5.6004569026714	0.92551238845417
5.5931428731343	0.92551768128610
5.5858479224893	0.92552296672940
5.5785719761816	0.92552824400048
5.5713149600446	0.92553351232073
5.5640768002970	0.92553877091658
5.5568574235403	0.92554401901952
5.5496567567568	0.92554925586623
5.5424747273063	0.92555448069861
5.5353112629247	0.92555969276388
5.5281662917204	0.92556489131460
5.5210397421731	0.92557007560877
5.5139315431304	0.92557524490989
5.5068416238060	0.92558039848702
5.4997699137773	0.92558553561483
5.4927163429828	0.92559065557370
5.4856808417200	0.92559575764974
5.4786633406433	0.92560084113488
5.4716637707611	0.92560590532690
5.4646820634342	0.92561094952953
5.4577181503732	0.92561597305248
5.4507719636364	0.92562097521152
5.4438434356274	0.92562595532851
5.4369324990932	0.92563091273147
5.4300390871219	0.92563584675465
5.4231631331404	0.92564075673856
5.4163045709124	0.92564564203006
5.4094633345363	0.92565050198237
5.4026393584430	0.92565533595516
5.3958325773938	0.92566014331457
5.3890429264785	0.92566492343330
5.3822703411131	0.92566967569062
5.3755147570378	0.92567439947247
5.3687761103152	0.92567909417144
5.3620543373278	0.92568375918690
5.3553493747767	0.92568839392498
5.3486611596789	0.92569299779866
5.3419896293656	0.92569757022778
5.3353347214807	0.92570211063912
5.3286963739780	0.92570661846644
5.3220745251198	0.92571109315050
5.3154691134752	0.92571553413912
5.3088800779175	0.92571994088723
5.3023073576229	0.92572431285689
5.2957508920685	0.92572864951736
5.2892106210303	0.92573295034511
5.2826864845815	0.92573721482387
5.2761784230905	0.92574144244470
5.2696863772192	0.92574563270597
5.2632102879213	0.92574978511344
5.2567500964405	0.92575389918028
5.2503057443082	0.92575797442712
5.2438771733427	0.92576201038205
5.2374643256464	0.92576600658071
5.2310671436050	0.92576996256627
5.2246855698850	0.92577387788948
5.2183195474326	0.92577775210872
5.2119690194715	0.92578158479001
5.2056339295016	0.92578537550703
5.1993142212973	0.92578912384120
5.1930098389052	0.92579282938163
5.1867207266436	0.92579649172523
5.1804468290997	0.92580011047668
5.1741880911288	0.92580368524847
5.1679444578521	0.92580721566093
5.1617158746556	0.92581070134226
5.1555022871883	0.92581414192855
5.1493036413604	0.92581753706378
5.1431198833419	0.92582088639987
5.1369509595613	0.92582418959672
5.1307968167037	0.92582744632215
5.1246574017094	0.92583065625202
5.1185326617722	0.92583381907018
5.1124225443383	0.92583693446850
5.1063269971044	0.92584000214692
5.1002459680163	0.92584302181341
5.0941794052676	0.92584599318406
5.0881272572980	0.92584891598301
5.0820894727920	0.92585178994252
5.0760660006773	0.92585461480299
5.0700567901235	0.92585739031292
5.0640617905405	0.92586011622897
5.0580809515775	0.92586279231595
5.0521142231210	0.92586541834683
5.0461615552937	0.92586799410274
5.0402228984533	0.92587051937302
5.0342982031906	0.92587299395516
5.0283874203287	0.92587541765487
5.0224905009214	0.92587779028604
5.0166073962517	0.92588011167079
5.0107380578305	0.92588238163941
5.0048824373957	0.92588460003043
4.9990404869101	0.92588676669058
4.9932121585610	0.92588888147480
4.9873974047579	0.92589094424625
4.9815961781323	0.92589295487632
4.9758084315353	0.92589491324458
4.9700341180371	0.92589681923884
4.9642731909256	0.92589867275510
4.9585256037049	0.92590047369758
4.9527913100942	0.92590222197869
4.9470702640264	0.92590391751905
4.9413624196473	0.92590556024745
4.9356677313138	0.92590715010088
4.9299861535932	0.92590868702450
4.9243176412615	0.92591017097164
4.9186621493027	0.92591160190378
4.9130196329072	0.92591297979055
4.9073900474709	0.92591430460972
4.9017733485939	0.92591557634719
4.8961694920790	0.92591679499697
4.8905784339315	0.92591796056116
4.8850001303569	0.92591907304996
4.8794345377604	0.92592013248163
4.8738816127459	0.92592113888249
4.8683413121143	0.92592209228690
4.8628135928629	0.92592299273723
4.8572984121841	0.92592384028385
4.8517957274640	0.92592463498515
4.8463054962819	0.92592537690743
4.8408276764088	0.92592606612497
4.8353622258065	0.92592670271996
