#Parameters = {thARC=0.8; nARC=1.75; thsub=1; p=1; nSub=1.75}
#"Wavelength / um"	"T (185) [Real Part]"
#---------------------------------------
14.989622900000	0.92561968330487
14.937342202292	0.92562602498997
14.885424925521	0.92563215499159
14.833867293419	0.92563807692763
14.782665581854	0.92564379438080
14.731816117936	0.92564931089872
14.681315279138	0.92565462999405
14.631159492435	0.92565975514462
14.581345233463	0.92566468979355
14.531869025691	0.92566943734938
14.482727439614	0.92567400118617
14.433917091960	0.92567838464369
14.385434644914	0.92568259102747
14.337276805356	0.92568662360899
14.289440324118	0.92569048562581
14.241921995249	0.92569418028167
14.194718655303	0.92569771074666
14.147827182633	0.92570108015734
14.101244496707	0.92570429161688
14.054967557431	0.92570734819521
14.008993364486	0.92571025292916
13.963318956684	0.92571300882260
13.917941411328	0.92571561884656
13.872857843591	0.92571808593942
13.828065405904	0.92572041300704
13.783561287356	0.92572260292289
13.739342713107	0.92572465852822
13.695406943810	0.92572658263220
13.651751275046	0.92572837801207
13.608373036768	0.92573004741331
13.565269592760	0.92573159354977
13.522438340099	0.92573301910385
13.479876708633	0.92573432672661
13.437582160466	0.92573551903800
13.395552189455	0.92573659862695
13.353784320713	0.92573756805155
13.312276110124	0.92573842983924
13.271025143869	0.92573918648692
13.230029037952	0.92573984046115
13.189285437747	0.92574039419831
13.148792017544	0.92574085010473
13.108546480105	0.92574121055689
13.068546556234	0.92574147790157
13.028790004346	0.92574165445603
12.989274610052	0.92574174250815
12.949998185745	0.92574174431661
12.910958570198	0.92574166211108
12.872153628167	0.92574149809234
12.833581250000	0.92574125443252
12.795239351259	0.92574093327519
12.757125872340	0.92574053673559
12.719238778108	0.92574006690078
12.681576057530	0.92573952582981
12.644135723323	0.92573891555390
12.606915811606	0.92573823807662
12.569914381551	0.92573749537402
12.533129515050	0.92573668939488
12.496559316382	0.92573582206082
12.460201911887	0.92573489526650
12.424055449648	0.92573391087980
12.388118099174	0.92573287074200
12.352388051092	0.92573177666792
12.316863516845	0.92573063044616
12.281542728390	0.92572943383922
12.246423937908	0.92572818858370
12.211505417515	0.92572689639049
12.176785458976	0.92572555894493
12.142262373431	0.92572417790701
12.107934491115	0.92572275491153
12.073800161095	0.92572129156827
12.039857751004	0.92571978946220
12.006105646776	0.92571825015365
11.972542252396	0.92571667517849
11.939165989646	0.92571506604828
11.905975297855	0.92571342425051
11.872968633663	0.92571175124874
11.840144470774	0.92571004848278
11.807501299724	0.92570831736888
11.775037627651	0.92570655929994
11.742751978065	0.92570477564563
11.710642890625	0.92570296775263
11.678708920919	0.92570113694478
11.646948640249	0.92569928452326
11.615360635413	0.92569741176681
11.583943508501	0.92569551993186
11.552695876686	0.92569361025275
11.521616372022	0.92569168394188
11.490703641242	0.92568974218992
11.459956345566	0.92568778616599
11.429373160503	0.92568581701782
11.398952775665	0.92568383587196
11.368693894577	0.92568184383394
11.338595234493	0.92567984198845
11.308655526217	0.92567783139955
11.278873513920	0.92567581311082
11.249247954972	0.92567378814555
11.219777619760	0.92567175750694
11.190461291527	0.92566972217825
11.161297766195	0.92566768312301
11.132285852209	0.92566564128518
11.103424370370	0.92566359758934
11.074712153676	0.92566155294086
11.046148047163	0.92565950822612
11.017730907755	0.92565746431261
10.989459604106	0.92565542204920
10.961333016453	0.92565338226625
10.933350036470	0.92565134577584
10.905509567115	0.92564931337191
10.877810522496	0.92564728583046
10.850251827723	0.92564526390970
10.822832418773	0.92564324835030
10.795551242348	0.92564123987546
10.768407255747	0.92563923919118
10.741399426729	0.92563724698640
10.714526733381	0.92563526393315
10.687788163993	0.92563329068679
10.661182716927	0.92563132788614
10.634709400497	0.92562937615363
10.608367232838	0.92562743609556
10.582155241793	0.92562550830220
10.556072464789	0.92562359334797
10.530117948718	0.92562169179167
10.504290749825	0.92561980417658
10.478589933590	0.92561793103069
10.453014574616	0.92561607286683
10.427563756522	0.92561423018287
10.402236571825	0.92561240346189
10.377032121841	0.92561059317233
10.351949516575	0.92560879976817
10.326987874612	0.92560702368911
10.302146323024	0.92560526536072
10.277423997257	0.92560352519464
10.252820041040	0.92560180358870
10.228333606278	0.92560010092712
10.203963852961	0.92559841758070
10.179709949066	0.92559675390690
10.155571070461	0.92559511025013
10.131546400811	0.92559348694178
10.107635131490	0.92559188430050
10.083836461487	0.92559030263230
10.060149597315	0.92558874223071
10.036573752929	0.92558720337698
10.013108149633	0.92558568634023
9.9897520159947	0.92558419137757
9.9665045877660	0.92558271873432
9.9433651077944	0.92558126864413
9.9203328259431	0.92557984132916
9.8974069990096	0.92557843700022
9.8745868906456	0.92557705585695
9.8518717712783	0.92557569808795
9.8292609180328	0.92557436387097
9.8067536146549	0.92557305337301
9.7843491514360	0.92557176675056
9.7620468251384	0.92557050414966
9.7398459389214	0.92556926570612
9.7177458022690	0.92556805154564
9.6957457309185	0.92556686178400
9.6738450467893	0.92556569652713
9.6520430779137	0.92556455587136
9.6303391583681	0.92556343990351
9.6087326282051	0.92556234870103
9.5872228333866	0.92556128233220
9.5658091257179	0.92556024085622
9.5444908627826	0.92555922432340
9.5232674078780	0.92555823277527
9.5021381299525	0.92555726624476
9.4811024035421	0.92555632475631
9.4601596087094	0.92555540832605
9.4393091309824	0.92555451696189
9.4185503612944	0.92555365066372
9.3978826959248	0.92555280942351
9.3773055364404	0.92555199322545
9.3568182896380	0.92555120204613
9.3364203674868	0.92555043585462
9.3161111870727	0.92554969461266
9.2958901705426	0.92554897827475
9.2757567450495	0.92554828678832
9.2557103426984	0.92554762009385
9.2357504004929	0.92554697812500
9.2158763602828	0.92554636080875
9.1960876687117	0.92554576806554
9.1763837771656	0.92554519980937
9.1567641417227	0.92554465594797
9.1372282231027	0.92554413638289
9.1177754866180	0.92554364100967
9.0984054021244	0.92554316971793
9.0791174439733	0.92554272239150
9.0599110909640	0.92554229890859
9.0407858262967	0.92554189914186
9.0217411375263	0.92554152295855
9.0027765165165	0.92554117022065
8.9838914593947	0.92554084078497
8.9650854665072	0.92554053450329
8.9463580423754	0.92554025122244
8.9277086956522	0.92553999078450
8.9091369390788	0.92553975302682
8.8906422894425	0.92553953778222
8.8722242675348	0.92553934487904
8.8538823981099	0.92553917414130
8.8356162098438	0.92553902538880
8.8174252352941	0.92553889843723
8.7993090108600	0.92553879309829
8.7812670767428	0.92553870917980
8.7632989769073	0.92553864648578
8.7454042590432	0.92553860481663
8.7275824745269	0.92553858396915
8.7098331783847	0.92553858373673
8.6921559292549	0.92553860390940
8.6745502893519	0.92553864427396
8.6570158244297	0.92553870461407
8.6395521037464	0.92553878471038
8.6221587000288	0.92553888434061
8.6048351894374	0.92553900327964
8.5875811515325	0.92553914129966
8.5703961692396	0.92553929817021
8.5532798288160	0.92553947365833
8.5362317198178	0.92553966752862
8.5192514350668	0.92553987954335
8.5023385706183	0.92554010946258
8.4854927257288	0.92554035704420
8.4687135028249	0.92554062204408
8.4520005074711	0.92554090421614
8.4353533483399	0.92554120331243
8.4187716371806	0.92554151908325
8.4022549887892	0.92554185127720
8.3858030209790	0.92554219964130
8.3694153545505	0.92554256392109
8.3530916132627	0.92554294386068
8.3368314238042	0.92554333920285
8.3206344157646	0.92554374968914
8.3045002216066	0.92554417505995
8.2884284766381	0.92554461505459
8.2724188189845	0.92554506941139
8.2564708895621	0.92554553786775
8.2405843320506	0.92554602016026
8.2247587928669	0.92554651602475
8.2089939211391	0.92554702519639
8.1932893686800	0.92554754740975
8.1776447899618	0.92554808239886
8.1620598420909	0.92554862989735
8.1465341847826	0.92554918963844
8.1310674803363	0.92554976135508
8.1156593936113	0.92555034478000
8.1003095920022	0.92555093964577
8.0850177454153	0.92555154568488
8.0697835262450	0.92555216262981
8.0546066093498	0.92555279021312
8.0394866720300	0.92555342816746
8.0244233940043	0.92555407622570
8.0094164573871	0.92555473412097
7.9944655466667	0.92555540158671
7.9795703486825	0.92555607835676
7.9647305526036	0.92555676416541
7.9499458499072	0.92555745874746
7.9352159343568	0.92555816183828
7.9205405019815	0.92555887317390
7.9059192510549	0.92555959249101
7.8913518820742	0.92556031952708
7.8768380977404	0.92556105402038
7.8623776029373	0.92556179571004
7.8479701047120	0.92556254433613
7.8336153122550	0.92556329963968
7.8193129368805	0.92556406136276
7.8050626920073	0.92556482924852
7.7908642931393	0.92556560304125
7.7767174578470	0.92556638248643
7.7626219057483	0.92556716733076
7.7485773584906	0.92556795732224
7.7345835397317	0.92556875221020
7.7206401751223	0.92556955174535
7.7067469922879	0.92557035567984
7.6929037208109	0.92557116376727
7.6791100922131	0.92557197576279
7.6653658399386	0.92557279142308
7.6516706993364	0.92557361050644
7.6380244076433	0.92557443277283
7.6244267039674	0.92557525798386
7.6108773292714	0.92557608590292
7.5973760263558	0.92557691629512
7.5839225398432	0.92557774892741
7.5705166161616	0.92557858356856
7.5571580035291	0.92557941998925
7.5438464519376	0.92558025796204
7.5305817131374	0.92558109726148
7.5173635406219	0.92558193766407
7.5041916896120	0.92558277894837
7.4910659170415	0.92558362089495
7.4779859815415	0.92558446328650
7.4649516434263	0.92558530590780
7.4519626646781	0.92558614854579
7.4390188089330	0.92558699098958
7.4261198414664	0.92558783303048
7.4132655291790	0.92558867446204
7.4004556405826	0.92558951508006
7.3876899457861	0.92559035468263
7.3749682164822	0.92559119307013
7.3622902259332	0.92559203004531
7.3496557489581	0.92559286541324
7.3370645619187	0.92559369898139
7.3245164427071	0.92559453055963
7.3120111707317	0.92559535996025
7.2995485269053	0.92559618699799
7.2871282936315	0.92559701149004
7.2747502547925	0.92559783325610
7.2624141957364	0.92559865211834
7.2501199032648	0.92559946790147
7.2378671656205	0.92560028043272
7.2256557724753	0.92560108954190
7.2134855149182	0.92560189506135
7.2013561854432	0.92560269682603
7.1892675779376	0.92560349467346
7.1772194876706	0.92560428844379
7.1652117112811	0.92560507797978
7.1532440467669	0.92560586312685
7.1413162934731	0.92560664373302
7.1294282520809	0.92560741964901
7.1175797245964	0.92560819072817
7.1057705143399	0.92560895682654
7.0940004259347	0.92560971780283
7.0822692652965	0.92561047351846
7.0705768396226	0.92561122383753
7.0589229573817	0.92561196862684
7.0473074283028	0.92561270775590
7.0357300633654	0.92561344109695
7.0241906747891	0.92561416852492
7.0126890760234	0.92561488991748
7.0012250817375	0.92561560515503
6.9897985078107	0.92561631412067
6.9784091713222	0.92561701670025
6.9670568905415	0.92561771278235
6.9557414849188	0.92561840225826
6.9444627750753	0.92561908502203
6.9332205827937	0.92561976097042
6.9220147310090	0.92562043000291
6.9108450437990	0.92562109202174
6.8997113463751	0.92562174693183
6.8886134650735	0.92562239464086
6.8775512273457	0.92562303505921
6.8665244617499	0.92562366809998
6.8555329979419	0.92562429367896
6.8445766666667	0.92562491171467
6.8336552997493	0.92562552212831
6.8227687300865	0.92562612484379
6.8119167916383	0.92562671978769
6.8010993194192	0.92562730688926
6.7903161494904	0.92562788608044
6.7795671189507	0.92562845729582
6.7688520659291	0.92562902047265
6.7581708295762	0.92562957555082
6.7475232500563	0.92563012247284
6.7369091685393	0.92563066118387
6.7263284271932	0.92563119163165
6.7157808691756	0.92563171376655
6.7052663386267	0.92563222754152
6.6947846806610	0.92563273291207
6.6843357413601	0.92563322983630
6.6739193677649	0.92563371827485
6.6635354078684	0.92563419819088
6.6531837106081	0.92563466955011
6.6428641258586	0.92563513232074
6.6325765044248	0.92563558647347
6.6223206980340	0.92563603198149
6.6120965593295	0.92563646882043
6.6019039418630	0.92563689696840
6.5917427000879	0.92563731640590
6.5816126893524	0.92563772711588
6.5715137658922	0.92563812908367
6.5614457868243	0.92563852229698
6.5514086101399	0.92563890674588
6.5414020946978	0.92563928242277
6.5314261002179	0.92563964932240
6.5214804872743	0.92564000744181
6.5115651172893	0.92564035678031
6.5016798525266	0.92564069733950
6.4918245560849	0.92564102912321
6.4819990918919	0.92564135213751
6.4722033246978	0.92564166639063
6.4624371200690	0.92564197189305
6.4527003443823	0.92564226865734
6.4429928648184	0.92564255669827
6.4333145493562	0.92564283603268
6.4236652667667	0.92564310667954
6.4140448866068	0.92564336865987
6.4044532792138	0.92564362199675
6.3948903156997	0.92564386671528
6.3853558679446	0.92564410284256
6.3758498085921	0.92564433040768
6.3663720110427	0.92564454944167
6.3569223494487	0.92564475997751
6.3475006987084	0.92564496205008
6.3381069344609	0.92564515569613
6.3287409330800	0.92564534095428
6.3194025716695	0.92564551786498
6.3100917280572	0.92564568647048
6.3008082807902	0.92564584681481
6.2915521091291	0.92564599894378
6.2823230930427	0.92564614290489
6.2731211132036	0.92564627874738
6.2639460509820	0.92564640652215
6.2547977884415	0.92564652628175
6.2456762083333	0.92564663808036
6.2365811940919	0.92564674197375
6.2275126298297	0.92564683801928
6.2184704003319	0.92564692627582
6.2094543910522	0.92564700680379
6.2004644881075	0.92564707966508
6.1915005782734	0.92564714492305
6.1825625489792	0.92564720264249
6.1736502883031	0.92564725288960
6.1647636849681	0.92564729573196
6.1559026283368	0.92564733123848
6.1470670084068	0.92564735947943
6.1382567158067	0.92564738052633
6.1294716417910	0.92564739445202
6.1207116782360	0.92564740133052
6.1119767176351	0.92564740123711
6.1032666530945	0.92564739424821
6.0945813783289	0.92564738044143
6.0859207876573	0.92564735989546
6.0772847759984	0.92564733269014
6.0686732388664	0.92564729890633
6.0600860723671	0.92564725862595
6.0515231731934	0.92564721193192
6.0429844386212	0.92564715890816
6.0344697665056	0.92564709963951
6.0259790552764	0.92564703421176
6.0175122039342	0.92564696271158
6.0090691120465	0.92564688522652
6.0006496797438	0.92564680184494
5.9922538077154	0.92564671265603
5.9838813972056	0.92564661774976
5.9755323500100	0.92564651721683
5.9672065684713	0.92564641114869
5.9589039554760	0.92564629963745
5.9506244144502	0.92564618277591
5.9423678493558	0.92564606065748
5.9341341646873	0.92564593337621
5.9259232654675	0.92564580102670
5.9177350572444	0.92564566370410
5.9095694460871	0.92564552150410
5.9014263385827	0.92564537452287
5.8933056418321	0.92564522285704
5.8852072634472	0.92564506660368
5.8771311115468	0.92564490586027
5.8690770947533	0.92564474072467
5.8610451221896	0.92564457129508
5.8530351034752	0.92564439767004
5.8450469487229	0.92564421994837
5.8370805685358	0.92564403822916
5.8291358740035	0.92564385261176
5.8212127766990	0.92564366319570
5.8133111886756	0.92564347008073
5.8054310224632	0.92564327336672
5.7975721910656	0.92564307315371
5.7897346079567	0.92564286954181
5.7819181870781	0.92564266263123
5.7741228428351	0.92564245252222
5.7663484900942	0.92564223931505
5.7585950441798	0.92564202310999
5.7508624208709	0.92564180400729
5.7431505363985	0.92564158210714
5.7354593074421	0.92564135750963
5.7277886511272	0.92564113031477
5.7201384850219	0.92564090062243
5.7125087271341	0.92564066853230
5.7048992959087	0.92564043414392
5.6973101102242	0.92564019755660
5.6897410893908	0.92563995886942
5.6821921531463	0.92563971818121
5.6746632216544	0.92563947559050
5.6671542155009	0.92563923119553
5.6596650556919	0.92563898509420
5.6521956636501	0.92563873738406
5.6447459612126	0.92563848816228
5.6373158706281	0.92563823752563
5.6299053145540	0.92563798557044
5.6225142160540	0.92563773239261
5.6151424985952	0.92563747808757
5.6077900860456	0.92563722275023
5.6004569026714	0.92563696647501
5.5931428731343	0.92563670935579
5.5858479224893	0.92563645148588
5.5785719761816	0.92563619295801
5.5713149600446	0.92563593386430
5.5640768002970	0.92563567429627
5.5568574235403	0.92563541434478
5.5496567567568	0.92563515410001
5.5424747273063	0.92563489365148
5.5353112629247	0.92563463308799
5.5281662917204	0.92563437249762
5.5210397421731	0.92563411196769
5.5139315431304	0.92563385158479
5.5068416238060	0.92563359143468
5.4997699137773	0.92563333160235
5.4927163429828	0.92563307217196
5.4856808417200	0.92563281322683
5.4786633406433	0.92563255484944
5.4716637707611	0.92563229712136
5.4646820634342	0.92563204012331
5.4577181503732	0.92563178393506
5.4507719636364	0.92563152863549
5.4438434356274	0.92563127430253
5.4369324990932	0.92563102101314
5.4300390871219	0.92563076884331
5.4231631331404	0.92563051786805
5.4163045709124	0.92563026816136
5.4094633345363	0.92563001979623
5.4026393584430	0.92562977284459
5.3958325773938	0.92562952737736
5.3890429264785	0.92562928346438
5.3822703411131	0.92562904117440
5.3755147570378	0.92562880057511
5.3687761103152	0.92562856173309
5.3620543373278	0.92562832471378
5.3553493747767	0.92562808958154
5.3486611596789	0.92562785639955
5.3419896293656	0.92562762522986
5.3353347214807	0.92562739613336
5.3286963739780	0.92562716916976
5.3220745251198	0.92562694439760
5.3154691134752	0.92562672187421
5.3088800779175	0.92562650165573
5.3023073576229	0.92562628379708
5.2957508920685	0.92562606835195
5.2892106210303	0.92562585537283
5.2826864845815	0.92562564491094
5.2761784230905	0.92562543701625
5.2696863772192	0.92562523173750
5.2632102879213	0.92562502912215
5.2567500964405	0.92562482921639
5.2503057443082	0.92562463206513
5.2438771733427	0.92562443771200
5.2374643256464	0.92562424619934
5.2310671436050	0.92562405756819
5.2246855698850	0.92562387185830
5.2183195474326	0.92562368910809
5.2119690194715	0.92562350935470
5.2056339295016	0.92562333263391
5.1993142212973	0.92562315898021
5.1930098389052	0.92562298842678
5.1867207266436	0.92562282100542
5.1804468290997	0.92562265674666
5.1741880911288	0.92562249567964
5.1679444578521	0.92562233783221
5.1617158746556	0.92562218323085
5.1555022871883	0.92562203190072
5.1493036413604	0.92562188386563
5.1431198833419	0.92562173914803
5.1369509595613	0.92562159776907
5.1307968167037	0.92562145974852
5.1246574017094	0.92562132510481
5.1185326617722	0.92562119385504
5.1124225443383	0.92562106601497
5.1063269971044	0.92562094159900
5.1002459680163	0.92562082062021
5.0941794052676	0.92562070309032
5.0881272572980	0.92562058901973
5.0820894727920	0.92562047841752
5.0760660006773	0.92562037129139
5.0700567901235	0.92562026764777
5.0640617905405	0.92562016749172
5.0580809515775	0.92562007082702
5.0521142231210	0.92561997765609
5.0461615552937	0.92561988798006
5.0402228984533	0.92561980179877
5.0342982031906	0.92561971911073
5.0283874203287	0.92561963991316
5.0224905009214	0.92561956420199
5.0166073962517	0.92561949197187
5.0107380578305	0.92561942321617
5.0048824373957	0.92561935792698
4.9990404869101	0.92561929609514
4.9932121585610	0.92561923771022
4.9873974047579	0.92561918276055
4.9815961781323	0.92561913123320
4.9758084315353	0.92561908311403
4.9700341180371	0.92561903838767
4.9642731909256	0.92561899703751
4.9585256037049	0.92561895904577
4.9527913100942	0.92561892439346
4.9470702640264	0.92561889306039
4.9413624196473	0.92561886502520
4.9356677313138	0.92561884026537
4.9299861535932	0.92561881875723
4.9243176412615	0.92561880047595
4.9186621493027	0.92561878539558
4.9130196329072	0.92561877348905
4.9073900474709	0.92561876472815
4.9017733485939	0.92561875908363
4.8961694920790	0.92561875652510
4.8905784339315	0.92561875702114
4.8850001303569	0.92561876053924
4.8794345377604	0.92561876704587
4.8738816127459	0.92561877650645
4.8683413121143	0.92561878888540
4.8628135928629	0.92561880414613
4.8572984121841	0.92561882225105
4.8517957274640	0.92561884316161
4.8463054962819	0.92561886683829
4.8408276764088	0.92561889324065
4.8353622258065	0.92561892232730
