#Parameters = {thARC=0; nARC=2; thsub=1; p=1; nSub=1.75}
#"Wavelength / um"	"T (187) [Real Part]"
#---------------------------------------
14.989622900000	0.92561983550762
14.937342202292	0.92564341332308
14.885424925521	0.92566658138251
14.833867293419	0.92568934318510
14.782665581854	0.92571170221793
14.731816117936	0.92573366195589
14.681315279138	0.92575522586159
14.631159492435	0.92577639738534
14.581345233463	0.92579717996510
14.531869025691	0.92581757702639
14.482727439614	0.92583759198226
14.433917091960	0.92585722823322
14.385434644914	0.92587648916720
14.337276805356	0.92589537815950
14.289440324118	0.92591389857272
14.241921995249	0.92593205375673
14.194718655303	0.92594984704860
14.147827182633	0.92596728177257
14.101244496707	0.92598436124000
14.054967557431	0.92600108874930
14.008993364486	0.92601746758590
13.963318956684	0.92603350102223
13.917941411328	0.92604919231760
13.872857843591	0.92606454471826
13.828065405904	0.92607956145725
13.783561287356	0.92609424575444
13.739342713107	0.92610860081644
13.695406943810	0.92612262983658
13.651751275046	0.92613633599485
13.608373036768	0.92614972245790
13.565269592760	0.92616279237895
13.522438340099	0.92617554889779
13.479876708633	0.92618799514073
13.437582160466	0.92620013422055
13.395552189455	0.92621196923650
13.353784320713	0.92622350327421
13.312276110124	0.92623473940572
13.271025143869	0.92624568068939
13.230029037952	0.92625633016991
13.189285437747	0.92626669087822
13.148792017544	0.92627676583155
13.108546480105	0.92628655803332
13.068546556234	0.92629607047313
13.028790004346	0.92630530612676
12.989274610052	0.92631426795610
12.949998185745	0.92632295890915
12.910958570198	0.92633138192000
12.872153628167	0.92633953990877
12.833581250000	0.92634743578160
12.795239351259	0.92635507243064
12.757125872340	0.92636245273402
12.719238778108	0.92636957955580
12.681576057530	0.92637645574599
12.644135723323	0.92638308414050
12.606915811606	0.92638946756111
12.569914381551	0.92639560881549
12.533129515050	0.92640151069714
12.496559316382	0.92640717598539
12.460201911887	0.92641260744537
12.424055449648	0.92641780782801
12.388118099174	0.92642277987001
12.352388051092	0.92642752629383
12.316863516845	0.92643204980764
12.281542728390	0.92643635310539
12.246423937908	0.92644043886670
12.211505417515	0.92644430975689
12.176785458976	0.92644796842698
12.142262373431	0.92645141751365
12.107934491115	0.92645465963925
12.073800161095	0.92645769741177
12.039857751004	0.92646053342484
12.006105646776	0.92646317025773
11.972542252396	0.92646561047531
11.939165989646	0.92646785662807
11.905975297855	0.92646991125212
11.872968633663	0.92647177686913
11.840144470774	0.92647345598640
11.807501299724	0.92647495109678
11.775037627651	0.92647626467871
11.742751978065	0.92647739919622
11.710642890625	0.92647835709889
11.678708920919	0.92647914082186
11.646948640249	0.92647975278586
11.615360635413	0.92648019539715
11.583943508501	0.92648047104758
11.552695876686	0.92648058211452
11.521616372022	0.92648053096094
11.490703641242	0.92648031993534
11.459956345566	0.92647995137178
11.429373160503	0.92647942758990
11.398952775665	0.92647875089488
11.368693894577	0.92647792357746
11.338595234493	0.92647694791398
11.308655526217	0.92647582616631
11.278873513920	0.92647456058193
11.249247954972	0.92647315339388
11.219777619760	0.92647160682078
11.190461291527	0.92646992306687
11.161297766195	0.92646810432195
11.132285852209	0.92646615276145
11.103424370370	0.92646407054641
11.074712153676	0.92646185982348
11.046148047163	0.92645952272495
11.017730907755	0.92645706136874
10.989459604106	0.92645447785841
10.961333016453	0.92645177428320
10.933350036470	0.92644895271800
10.905509567115	0.92644601522338
10.877810522496	0.92644296384563
10.850251827723	0.92643980061671
10.822832418773	0.92643652755430
10.795551242348	0.92643314666184
10.768407255747	0.92642965992849
10.741399426729	0.92642606932916
10.714526733381	0.92642237682456
10.687788163993	0.92641858436117
10.661182716927	0.92641469387129
10.634709400497	0.92641070727302
10.608367232838	0.92640662647032
10.582155241793	0.92640245335300
10.556072464789	0.92639818979673
10.530117948718	0.92639383766308
10.504290749825	0.92638939879954
10.478589933590	0.92638487503952
10.453014574616	0.92638026820238
10.427563756522	0.92637558009345
10.402236571825	0.92637081250405
10.377032121841	0.92636596721151
10.351949516575	0.92636104597920
10.326987874612	0.92635605055654
10.302146323024	0.92635098267902
10.277423997257	0.92634584406825
10.252820041040	0.92634063643194
10.228333606278	0.92633536146397
10.203963852961	0.92633002084437
10.179709949066	0.92632461623938
10.155571070461	0.92631914930147
10.131546400811	0.92631362166932
10.107635131490	0.92630803496793
10.083836461487	0.92630239080858
10.060149597315	0.92629669078885
10.036573752929	0.92629093649271
10.013108149633	0.92628512949050
9.9897520159947	0.92627927133896
9.9665045877660	0.92627336358128
9.9433651077944	0.92626740774710
9.9203328259431	0.92626140535256
9.8974069990096	0.92625535790033
9.8745868906456	0.92624926687964
9.8518717712783	0.92624313376629
9.8292609180328	0.92623696002270
9.8067536146549	0.92623074709794
9.7843491514360	0.92622449642777
9.7620468251384	0.92621820943463
9.7398459389214	0.92621188752772
9.7177458022690	0.92620553210302
9.6957457309185	0.92619914454330
9.6738450467893	0.92619272621820
9.6520430779137	0.92618627848420
9.6303391583681	0.92617980268472
9.6087326282051	0.92617330015009
9.5872228333866	0.92616677219765
9.5658091257179	0.92616022013174
9.5444908627826	0.92615364524373
9.5232674078780	0.92614704881210
9.5021381299525	0.92614043210244
9.4811024035421	0.92613379636749
9.4601596087094	0.92612714284720
9.4393091309824	0.92612047276873
9.4185503612944	0.92611378734652
9.3978826959248	0.92610708778231
9.3773055364404	0.92610037526518
9.3568182896380	0.92609365097160
9.3364203674868	0.92608691606545
9.3161111870727	0.92608017169808
9.2958901705426	0.92607341900833
9.2757567450495	0.92606665912257
9.2557103426984	0.92605989315477
9.2357504004929	0.92605312220651
9.2158763602828	0.92604634736700
9.1960876687117	0.92603956971319
9.1763837771656	0.92603279030973
9.1567641417227	0.92602601020910
9.1372282231027	0.92601923045155
9.1177754866180	0.92601245206522
9.0984054021244	0.92600567606617
9.0791174439733	0.92599890345837
9.0599110909640	0.92599213523382
9.0407858262967	0.92598537237254
9.0217411375263	0.92597861584261
9.0027765165165	0.92597186660026
8.9838914593947	0.92596512558986
8.9650854665072	0.92595839374401
8.9463580423754	0.92595167198354
8.9277086956522	0.92594496121759
8.9091369390788	0.92593826234364
8.8906422894425	0.92593157624756
8.8722242675348	0.92592490380364
8.8538823981099	0.92591824587466
8.8356162098438	0.92591160331192
8.8174252352941	0.92590497695528
8.7993090108600	0.92589836763322
8.7812670767428	0.92589177616288
8.7632989769073	0.92588520335011
8.7454042590432	0.92587864998951
8.7275824745269	0.92587211686449
8.7098331783847	0.92586560474729
8.6921559292549	0.92585911439906
8.6745502893519	0.92585264656988
8.6570158244297	0.92584620199885
8.6395521037464	0.92583978141408
8.6221587000288	0.92583338553277
8.6048351894374	0.92582701506127
8.5875811515325	0.92582067069511
8.5703961692396	0.92581435311903
8.5532798288160	0.92580806300708
8.5362317198178	0.92580180102263
8.5192514350668	0.92579556781843
8.5023385706183	0.92578936403667
8.4854927257288	0.92578319030900
8.4687135028249	0.92577704725660
8.4520005074711	0.92577093549026
8.4353533483399	0.92576485561037
8.4187716371806	0.92575880820700
8.4022549887892	0.92575279385997
8.3858030209790	0.92574681313886
8.3694153545505	0.92574086660309
8.3530916132627	0.92573495480197
8.3368314238042	0.92572907827474
8.3206344157646	0.92572323755062
8.3045002216066	0.92571743314887
8.2884284766381	0.92571166557885
8.2724188189845	0.92570593534003
8.2564708895621	0.92570024292212
8.2405843320506	0.92569458880502
8.2247587928669	0.92568897345896
8.2089939211391	0.92568339734453
8.1932893686800	0.92567786091268
8.1776447899618	0.92567236460485
8.1620598420909	0.92566690885297
8.1465341847826	0.92566149407953
8.1310674803363	0.92565612069764
8.1156593936113	0.92565078911108
8.1003095920022	0.92564549971432
8.0850177454153	0.92564025289264
8.0697835262450	0.92563504902212
8.0546066093498	0.92562988846973
8.0394866720300	0.92562477159336
8.0244233940043	0.92561969874191
8.0094164573871	0.92561467025530
7.9944655466667	0.92560968646454
7.9795703486825	0.92560474769181
7.9647305526036	0.92559985425048
7.9499458499072	0.92559500644518
7.9352159343568	0.92559020457183
7.9205405019815	0.92558544891776
7.9059192510549	0.92558073976168
7.8913518820742	0.92557607737378
7.8768380977404	0.92557146201581
7.8623776029373	0.92556689394107
7.8479701047120	0.92556237339450
7.8336153122550	0.92555790061277
7.8193129368805	0.92555347582425
7.8050626920073	0.92554909924914
7.7908642931393	0.92554477109951
7.7767174578470	0.92554049157932
7.7626219057483	0.92553626088450
7.7485773584906	0.92553207920303
7.7345835397317	0.92552794671495
7.7206401751223	0.92552386359244
7.7067469922879	0.92551982999987
7.6929037208109	0.92551584609385
7.6791100922131	0.92551191202331
7.6653658399386	0.92550802792952
7.6516706993364	0.92550419394617
7.6380244076433	0.92550041019943
7.6244267039674	0.92549667680797
7.6108773292714	0.92549299388307
7.5973760263558	0.92548936152862
7.5839225398432	0.92548577984122
7.5705166161616	0.92548224891021
7.5571580035291	0.92547876881775
7.5438464519376	0.92547533963883
7.5305817131374	0.92547196144139
7.5173635406219	0.92546863428631
7.5041916896120	0.92546535822753
7.4910659170415	0.92546213331206
7.4779859815415	0.92545895958004
7.4649516434263	0.92545583706482
7.4519626646781	0.92545276579300
7.4390188089330	0.92544974578450
7.4261198414664	0.92544677705259
7.4132655291790	0.92544385960395
7.4004556405826	0.92544099343877
7.3876899457861	0.92543817855075
7.3749682164822	0.92543541492719
7.3622902259332	0.92543270254904
7.3496557489581	0.92543004139092
7.3370645619187	0.92542743142126
7.3245164427071	0.92542487260226
7.3120111707317	0.92542236489002
7.2995485269053	0.92541990823455
7.2871282936315	0.92541750257985
7.2747502547925	0.92541514786395
7.2624141957364	0.92541284401898
7.2501199032648	0.92541059097124
7.2378671656205	0.92540838864121
7.2256557724753	0.92540623694364
7.2134855149182	0.92540413578760
7.2013561854432	0.92540208507655
7.1892675779376	0.92540008470837
7.1772194876706	0.92539813457541
7.1652117112811	0.92539623456459
7.1532440467669	0.92539438455742
7.1413162934731	0.92539258443006
7.1294282520809	0.92539083405339
7.1175797245964	0.92538913329303
7.1057705143399	0.92538748200946
7.0940004259347	0.92538588005802
7.0822692652965	0.92538432728897
7.0705768396226	0.92538282354758
7.0589229573817	0.92538136867416
7.0473074283028	0.92537996250410
7.0357300633654	0.92537860486796
7.0241906747891	0.92537729559153
7.0126890760234	0.92537603449583
7.0012250817375	0.92537482139723
6.9897985078107	0.92537365610745
6.9784091713222	0.92537253843367
6.9670568905415	0.92537146817852
6.9557414849188	0.92537044514022
6.9444627750753	0.92536946911254
6.9332205827937	0.92536853988493
6.9220147310090	0.92536765724254
6.9108450437990	0.92536682096626
6.8997113463751	0.92536603083283
6.8886134650735	0.92536528661484
6.8775512273457	0.92536458808080
6.8665244617499	0.92536393499521
6.8555329979419	0.92536332711860
6.8445766666667	0.92536276420758
6.8336552997493	0.92536224601492
6.8227687300865	0.92536177228956
6.8119167916383	0.92536134277670
6.8010993194192	0.92536095721786
6.7903161494904	0.92536061535090
6.7795671189507	0.92536031691009
6.7688520659291	0.92536006162616
6.7581708295762	0.92535984922638
6.7475232500563	0.92535967943457
6.7369091685393	0.92535955197119
6.7263284271932	0.92535946655336
6.7157808691756	0.92535942289494
6.7052663386267	0.92535942070659
6.6947846806610	0.92535945969577
6.6843357413601	0.92535953956687
6.6739193677649	0.92535966002119
6.6635354078684	0.92535982075705
6.6531837106081	0.92536002146979
6.6428641258586	0.92536026185187
6.6325765044248	0.92536054159291
6.6223206980340	0.92536086037969
6.6120965593295	0.92536121789631
6.6019039418630	0.92536161382411
6.5917427000879	0.92536204784184
6.5816126893524	0.92536251962565
6.5715137658922	0.92536302884912
6.5614457868243	0.92536357518338
6.5514086101399	0.92536415829712
6.5414020946978	0.92536477785663
6.5314261002179	0.92536543352588
6.5214804872743	0.92536612496654
6.5115651172893	0.92536685183807
6.5016798525266	0.92536761379773
6.4918245560849	0.92536841050067
6.4819990918919	0.92536924159994
6.4722033246978	0.92537010674656
6.4624371200690	0.92537100558957
6.4527003443823	0.92537193777610
6.4429928648184	0.92537290295137
6.4333145493562	0.92537390075878
6.4236652667667	0.92537493083995
6.4140448866068	0.92537599283475
6.4044532792138	0.92537708638140
6.3948903156997	0.92537821111644
6.3853558679446	0.92537936667485
6.3758498085921	0.92538055269008
6.3663720110427	0.92538176879406
6.3569223494487	0.92538301461730
6.3475006987084	0.92538428978891
6.3381069344609	0.92538559393665
6.3287409330800	0.92538692668700
6.3194025716695	0.92538828766515
6.3100917280572	0.92538967649513
6.3008082807902	0.92539109279978
6.2915521091291	0.92539253620086
6.2823230930427	0.92539400631905
6.2731211132036	0.92539550277400
6.2639460509820	0.92539702518443
6.2547977884415	0.92539857316810
6.2456762083333	0.92540014634192
6.2365811940919	0.92540174432194
6.2275126298297	0.92540336672346
6.2184704003319	0.92540501316100
6.2094543910522	0.92540668324843
6.2004644881075	0.92540837659894
6.1915005782734	0.92541009282512
6.1825625489792	0.92541183153901
6.1736502883031	0.92541359235214
6.1647636849681	0.92541537487554
6.1559026283368	0.92541717871985
6.1470670084068	0.92541900349531
6.1382567158067	0.92542084881182
6.1294716417910	0.92542271427900
6.1207116782360	0.92542459950620
6.1119767176351	0.92542650410258
6.1032666530945	0.92542842767713
6.0945813783289	0.92543036983870
6.0859207876573	0.92543233019609
6.0772847759984	0.92543430835805
6.0686732388664	0.92543630393333
6.0600860723671	0.92543831653073
6.0515231731934	0.92544034575914
6.0429844386212	0.92544239122760
6.0344697665056	0.92544445254528
6.0259790552764	0.92544652932161
6.0175122039342	0.92544862116624
6.0090691120465	0.92545072768912
6.0006496797438	0.92545284850056
5.9922538077154	0.92545498321122
5.9838813972056	0.92545713143218
5.9755323500100	0.92545929277498
5.9672065684713	0.92546146685166
5.9589039554760	0.92546365327478
5.9506244144502	0.92546585165750
5.9423678493558	0.92546806161355
5.9341341646873	0.92547028275735
5.9259232654675	0.92547251470400
5.9177350572444	0.92547475706932
5.9095694460871	0.92547700946990
5.9014263385827	0.92547927152313
5.8933056418321	0.92548154284724
5.8852072634472	0.92548382306136
5.8771311115468	0.92548611178551
5.8690770947533	0.92548840864066
5.8610451221896	0.92549071324880
5.8530351034752	0.92549302523291
5.8450469487229	0.92549534421705
5.8370805685358	0.92549766982638
5.8291358740035	0.92550000168718
5.8212127766990	0.92550233942690
5.8133111886756	0.92550468267421
5.8054310224632	0.92550703105900
5.7975721910656	0.92550938421244
5.7897346079567	0.92551174176700
5.7819181870781	0.92551410335650
5.7741228428351	0.92551646861613
5.7663484900942	0.92551883718249
5.7585950441798	0.92552120869363
5.7508624208709	0.92552358278906
5.7431505363985	0.92552595910980
5.7354593074421	0.92552833729842
5.7277886511272	0.92553071699906
5.7201384850219	0.92553309785746
5.7125087271341	0.92553547952100
5.7048992959087	0.92553786163873
5.6973101102242	0.92554024386139
5.6897410893908	0.92554262584147
5.6821921531463	0.92554500723319
5.6746632216544	0.92554738769260
5.6671542155009	0.92554976687753
5.6596650556919	0.92555214444770
5.6521956636501	0.92555452006469
5.6447459612126	0.92555689339200
5.6373158706281	0.92555926409505
5.6299053145540	0.92556163184126
5.6225142160540	0.92556399630003
5.6151424985952	0.92556635714277
5.6077900860456	0.92556871404299
5.6004569026714	0.92557106667623
5.5931428731343	0.92557341472017
5.5858479224893	0.92557575785461
5.5785719761816	0.92557809576154
5.5713149600446	0.92558042812510
5.5640768002970	0.92558275463168
5.5568574235403	0.92558507496989
5.5496567567568	0.92558738883063
5.5424747273063	0.92558969590706
5.5353112629247	0.92559199589471
5.5281662917204	0.92559428849139
5.5210397421731	0.92559657339734
5.5139315431304	0.92559885031515
5.5068416238060	0.92560111894984
5.4997699137773	0.92560337900888
5.4927163429828	0.92560563020220
5.4856808417200	0.92560787224221
5.4786633406433	0.92561010484383
5.4716637707611	0.92561232772453
5.4646820634342	0.92561454060432
5.4577181503732	0.92561674320579
5.4507719636364	0.92561893525413
5.4438434356274	0.92562111647716
5.4369324990932	0.92562328660533
5.4300390871219	0.92562544537176
5.4231631331404	0.92562759251225
5.4163045709124	0.92562972776530
5.4094633345363	0.92563185087215
5.4026393584430	0.92563396157677
5.3958325773938	0.92563605962590
5.3890429264785	0.92563814476905
5.3822703411131	0.92564021675856
5.3755147570378	0.92564227534955
5.3687761103152	0.92564432030001
5.3620543373278	0.92564635137077
5.3553493747767	0.92564836832554
5.3486611596789	0.92565037093092
5.3419896293656	0.92565235895642
5.3353347214807	0.92565433217447
5.3286963739780	0.92565629036044
5.3220745251198	0.92565823329267
5.3154691134752	0.92566016075245
5.3088800779175	0.92566207252408
5.3023073576229	0.92566396839486
5.2957508920685	0.92566584815510
5.2892106210303	0.92566771159816
5.2826864845815	0.92566955852041
5.2761784230905	0.92567138872133
5.2696863772192	0.92567320200345
5.2632102879213	0.92567499817239
5.2567500964405	0.92567677703687
5.2503057443082	0.92567853840873
5.2438771733427	0.92568028210294
5.2374643256464	0.92568200793760
5.2310671436050	0.92568371573397
5.2246855698850	0.92568540531645
5.2183195474326	0.92568707651266
5.2119690194715	0.92568872915335
5.2056339295016	0.92569036307251
5.1993142212973	0.92569197810730
5.1930098389052	0.92569357409813
5.1867207266436	0.92569515088860
5.1804468290997	0.92569670832558
5.1741880911288	0.92569824625914
5.1679444578521	0.92569976454265
5.1617158746556	0.92570126303271
5.1555022871883	0.92570274158919
5.1493036413604	0.92570420007525
5.1431198833419	0.92570563835732
5.1369509595613	0.92570705630514
5.1307968167037	0.92570845379171
5.1246574017094	0.92570983069338
5.1185326617722	0.92571118688979
5.1124225443383	0.92571252226389
5.1063269971044	0.92571383670195
5.1002459680163	0.92571513009359
5.0941794052676	0.92571640233173
5.0881272572980	0.92571765331266
5.0820894727920	0.92571888293599
5.0760660006773	0.92572009110468
5.0700567901235	0.92572127772504
5.0640617905405	0.92572244270672
5.0580809515775	0.92572358596275
5.0521142231210	0.92572470740950
5.0461615552937	0.92572580696670
5.0402228984533	0.92572688455744
5.0342982031906	0.92572794010819
5.0283874203287	0.92572897354877
5.0224905009214	0.92572998481237
5.0166073962517	0.92573097383556
5.0107380578305	0.92573194055826
5.0048824373957	0.92573288492376
4.9990404869101	0.92573380687873
4.9932121585610	0.92573470637320
4.9873974047579	0.92573558336057
4.9815961781323	0.92573643779760
4.9758084315353	0.92573726964441
4.9700341180371	0.92573807886450
4.9642731909256	0.92573886542472
4.9585256037049	0.92573962929527
4.9527913100942	0.92574037044972
4.9470702640264	0.92574108886499
4.9413624196473	0.92574178452134
4.9356677313138	0.92574245740238
4.9299861535932	0.92574310749506
4.9243176412615	0.92574373478968
4.9186621493027	0.92574433927985
4.9130196329072	0.92574492096254
4.9073900474709	0.92574547983800
4.9017733485939	0.92574601590984
4.8961694920790	0.92574652918494
4.8905784339315	0.92574701967353
4.8850001303569	0.92574748738911
4.8794345377604	0.92574793234846
4.8738816127459	0.92574835457168
4.8683413121143	0.92574875408213
4.8628135928629	0.92574913090644
4.8572984121841	0.92574948507449
4.8517957274640	0.92574981661943
4.8463054962819	0.92575012557765
4.8408276764088	0.92575041198878
4.8353622258065	0.92575067589566
