#Parameters = {thARC=0.8; nARC=1.5; thsub=1; p=1; nSub=1}
#"Wavelength / um"	"T (18) [Real Part]"
#--------------------------------------
14.989622900000	0.96122078064762
14.937342202292	0.96105683163588
14.885424925521	0.96089120998428
14.833867293419	0.96072392934211
14.782665581854	0.96055500334652
14.731816117936	0.96038444562189
14.681315279138	0.96021226977917
14.631159492435	0.96003848941525
14.581345233463	0.95986311811231
14.531869025691	0.95968616943723
14.482727439614	0.95950765694092
14.433917091960	0.95932759415777
14.385434644914	0.95914599460499
14.337276805356	0.95896287178201
14.289440324118	0.95877823916992
14.241921995249	0.95859211023082
14.194718655303	0.95840449840730
14.147827182633	0.95821541712180
14.101244496707	0.95802487977608
14.054967557431	0.95783289975061
14.008993364486	0.95763949040404
13.963318956684	0.95744466507262
13.917941411328	0.95724843706966
13.872857843591	0.95705081968498
13.828065405904	0.95685182618438
13.783561287356	0.95665146980907
13.739342713107	0.95644976377518
13.695406943810	0.95624672127322
13.651751275046	0.95604235546755
13.608373036768	0.95583667949591
13.565269592760	0.95562970646885
13.522438340099	0.95542144946928
13.479876708633	0.95521192155197
13.437582160466	0.95500113574303
13.395552189455	0.95478910503946
13.353784320713	0.95457584240866
13.312276110124	0.95436136078795
13.271025143869	0.95414567308413
13.230029037952	0.95392879217297
13.189285437747	0.95371073089883
13.148792017544	0.95349150207414
13.108546480105	0.95327111847899
13.068546556234	0.95304959286070
13.028790004346	0.95282693793338
12.989274610052	0.95260316637749
12.949998185745	0.95237829083945
12.910958570198	0.95215232393119
12.872153628167	0.95192527822977
12.833581250000	0.95169716627698
12.795239351259	0.95146800057892
12.757125872340	0.95123779360562
12.719238778108	0.95100655779065
12.681576057530	0.95077430553075
12.644135723323	0.95054104918546
12.606915811606	0.95030680107673
12.569914381551	0.95007157348857
12.533129515050	0.94983537866669
12.496559316382	0.94959822881816
12.460201911887	0.94936013611103
12.424055449648	0.94912111267403
12.388118099174	0.94888117059623
12.352388051092	0.94864032192666
12.316863516845	0.94839857867406
12.281542728390	0.94815595280650
12.246423937908	0.94791245625110
12.211505417515	0.94766810089372
12.176785458976	0.94742289857863
12.142262373431	0.94717686110827
12.107934491115	0.94693000024289
12.073800161095	0.94668232770030
12.039857751004	0.94643385515561
12.006105646776	0.94618459424090
11.972542252396	0.94593455654500
11.939165989646	0.94568375361319
11.905975297855	0.94543219694696
11.872968633663	0.94517989800376
11.840144470774	0.94492686819674
11.807501299724	0.94467311889449
11.775037627651	0.94441866142082
11.742751978065	0.94416350705456
11.710642890625	0.94390766702924
11.678708920919	0.94365115253297
11.646948640249	0.94339397470814
11.615360635413	0.94313614465125
11.583943508501	0.94287767341271
11.552695876686	0.94261857199659
11.521616372022	0.94235885136046
11.490703641242	0.94209852241518
11.459956345566	0.94183759602473
11.429373160503	0.94157608300599
11.398952775665	0.94131399412860
11.368693894577	0.94105134011476
11.338595234493	0.94078813163906
11.308655526217	0.94052437932835
11.278873513920	0.94026009376153
11.249247954972	0.93999528546943
11.219777619760	0.93972996493463
11.190461291527	0.93946414259135
11.161297766195	0.93919782882528
11.132285852209	0.93893103397345
11.103424370370	0.93866376832410
11.074712153676	0.93839604211655
11.046148047163	0.93812786554109
11.017730907755	0.93785924873884
10.989459604106	0.93759020180162
10.961333016453	0.93732073477191
10.933350036470	0.93705085764265
10.905509567115	0.93678058035722
10.877810522496	0.93650991280929
10.850251827723	0.93623886484274
10.822832418773	0.93596744625158
10.795551242348	0.93569566677988
10.768407255747	0.93542353612163
10.741399426729	0.93515106392074
10.714526733381	0.93487825977090
10.687788163993	0.93460513321557
10.661182716927	0.93433169374787
10.634709400497	0.93405795081052
10.608367232838	0.93378391379584
10.582155241793	0.93350959204562
10.556072464789	0.93323499485114
10.530117948718	0.93296013145305
10.504290749825	0.93268501104142
10.478589933590	0.93240964275563
10.453014574616	0.93213403568435
10.427563756522	0.93185819886555
10.402236571825	0.93158214128641
10.377032121841	0.93130587188337
10.351949516575	0.93102939954204
10.326987874612	0.93075273309723
10.302146323024	0.93047588133292
10.277423997257	0.93019885298228
10.252820041040	0.92992165672760
10.228333606278	0.92964430120038
10.203963852961	0.92936679498123
10.179709949066	0.92908914659998
10.155571070461	0.92881136453558
10.131546400811	0.92853345721622
10.107635131490	0.92825543301927
10.083836461487	0.92797730027131
10.060149597315	0.92769906724817
10.036573752929	0.92742074217497
10.013108149633	0.92714233322610
9.9897520159947	0.92686384852528
9.9665045877660	0.92658529614560
9.9433651077944	0.92630668410955
9.9203328259431	0.92602802038903
9.8974069990096	0.92574931290546
9.8745868906456	0.92547056952976
9.8518717712783	0.92519179808243
9.8292609180328	0.92491300633362
9.8067536146549	0.92463420200312
9.7843491514360	0.92435539276051
9.7620468251384	0.92407658622511
9.7398459389214	0.92379778996617
9.7177458022690	0.92351901150281
9.6957457309185	0.92324025830418
9.6738450467893	0.92296153778949
9.6520430779137	0.92268285732809
9.6303391583681	0.92240422423954
9.6087326282051	0.92212564579371
9.5872228333866	0.92184712921084
9.5658091257179	0.92156868166162
9.5444908627826	0.92129031026732
9.5232674078780	0.92101202209980
9.5021381299525	0.92073382418169
9.4811024035421	0.92045572348640
9.4601596087094	0.92017772693830
9.4393091309824	0.91989984141273
9.4185503612944	0.91962207373618
9.3978826959248	0.91934443068632
9.3773055364404	0.91906691899217
9.3568182896380	0.91878954533417
9.3364203674868	0.91851231634428
9.3161111870727	0.91823523860614
9.2958901705426	0.91795831865513
9.2757567450495	0.91768156297850
9.2557103426984	0.91740497801550
9.2357504004929	0.91712857015750
9.2158763602828	0.91685234574810
9.1960876687117	0.91657631108326
9.1763837771656	0.91630047241140
9.1567641417227	0.91602483593357
9.1372282231027	0.91574940780356
9.1177754866180	0.91547419412803
9.0984054021244	0.91519920096661
9.0791174439733	0.91492443433211
9.0599110909640	0.91464990019057
9.0407858262967	0.91437560446146
9.0217411375263	0.91410155301780
9.0027765165165	0.91382775168629
8.9838914593947	0.91355420624747
8.9650854665072	0.91328092243584
8.9463580423754	0.91300790594003
8.9277086956522	0.91273516240295
8.9091369390788	0.91246269742191
8.8906422894425	0.91219051654879
8.8722242675348	0.91191862529021
8.8538823981099	0.91164702910763
8.8356162098438	0.91137573341756
8.8174252352941	0.91110474359169
8.7993090108600	0.91083406495706
8.7812670767428	0.91056370279618
8.7632989769073	0.91029366234724
8.7454042590432	0.91002394880427
8.7275824745269	0.90975456731725
8.7098331783847	0.90948552299232
8.6921559292549	0.90921682089194
8.6745502893519	0.90894846603505
8.6570158244297	0.90868046339722
8.6395521037464	0.90841281791085
8.6221587000288	0.90814553446533
8.6048351894374	0.90787861790719
8.5875811515325	0.90761207304030
8.5703961692396	0.90734590462602
8.5532798288160	0.90708011738339
8.5362317198178	0.90681471598931
8.5192514350668	0.90654970507870
8.5023385706183	0.90628508924467
8.4854927257288	0.90602087303873
8.4687135028249	0.90575706097093
8.4520005074711	0.90549365751008
8.4353533483399	0.90523066708390
8.4187716371806	0.90496809407920
8.4022549887892	0.90470594284210
8.3858030209790	0.90444421767816
8.3694153545505	0.90418292285261
8.3530916132627	0.90392206259051
8.3368314238042	0.90366164107692
8.3206344157646	0.90340166245715
8.3045002216066	0.90314213083687
8.2884284766381	0.90288305028234
8.2724188189845	0.90262442482058
8.2564708895621	0.90236625843960
8.2405843320506	0.90210855508851
8.2247587928669	0.90185131867781
8.2089939211391	0.90159455307949
8.1932893686800	0.90133826212727
8.1776447899618	0.90108244961679
8.1620598420909	0.90082711930578
8.1465341847826	0.90057227491429
8.1310674803363	0.90031792012484
8.1156593936113	0.90006405858263
8.1003095920022	0.89981069389577
8.0850177454153	0.89955782963540
8.0697835262450	0.89930546933597
8.0546066093498	0.89905361649536
8.0394866720300	0.89880227457514
8.0244233940043	0.89855144700070
8.0094164573871	0.89830113716153
7.9944655466667	0.89805134841133
7.9795703486825	0.89780208406827
7.9647305526036	0.89755334741516
7.9499458499072	0.89730514169966
7.9352159343568	0.89705747013444
7.9205405019815	0.89681033589747
7.9059192510549	0.89656374213210
7.8913518820742	0.89631769194736
7.8768380977404	0.89607218841809
7.8623776029373	0.89582723458520
7.8479701047120	0.89558283345579
7.8336153122550	0.89533898800344
7.8193129368805	0.89509570116836
7.8050626920073	0.89485297585757
7.7908642931393	0.89461081494515
7.7767174578470	0.89436922127243
7.7626219057483	0.89412819764814
7.7485773584906	0.89388774684869
7.7345835397317	0.89364787161830
7.7206401751223	0.89340857466925
7.7067469922879	0.89316985868206
7.6929037208109	0.89293172630567
7.6791100922131	0.89269418015769
7.6653658399386	0.89245722282456
7.6516706993364	0.89222085686177
7.6380244076433	0.89198508479406
7.6244267039674	0.89174990911560
7.6108773292714	0.89151533229024
7.5973760263558	0.89128135675163
7.5839225398432	0.89104798490352
7.5705166161616	0.89081521911988
7.5571580035291	0.89058306174513
7.5438464519376	0.89035151509435
7.5305817131374	0.89012058145348
7.5173635406219	0.88989026307948
7.5041916896120	0.88966056220060
7.4910659170415	0.88943148101650
7.4779859815415	0.88920302169854
7.4649516434263	0.88897518638989
7.4519626646781	0.88874797720578
7.4390188089330	0.88852139623370
7.4261198414664	0.88829544553358
7.4132655291790	0.88807012713800
7.4004556405826	0.88784544305238
7.3876899457861	0.88762139525521
7.3749682164822	0.88739798569818
7.3622902259332	0.88717521630646
7.3496557489581	0.88695308897883
7.3370645619187	0.88673160558792
7.3245164427071	0.88651076798039
7.3120111707317	0.88629057797714
7.2995485269053	0.88607103737347
7.2871282936315	0.88585214793933
7.2747502547925	0.88563391141948
7.2624141957364	0.88541632953369
7.2501199032648	0.88519940397693
7.2378671656205	0.88498313641960
7.2256557724753	0.88476752850769
7.2134855149182	0.88455258186296
7.2013561854432	0.88433829808320
7.1892675779376	0.88412467874234
7.1772194876706	0.88391172539071
7.1652117112811	0.88369943955520
7.1532440467669	0.88348782273945
7.1413162934731	0.88327687642408
7.1294282520809	0.88306660206682
7.1175797245964	0.88285700110275
7.1057705143399	0.88264807494448
7.0940004259347	0.88243982498233
7.0822692652965	0.88223225258452
7.0705768396226	0.88202535909737
7.0589229573817	0.88181914584550
7.0473074283028	0.88161361413196
7.0357300633654	0.88140876523852
7.0241906747891	0.88120460042574
7.0126890760234	0.88100112093326
7.0012250817375	0.88079832797992
6.9897985078107	0.88059622276398
6.9784091713222	0.88039480646328
6.9670568905415	0.88019408023545
6.9557414849188	0.87999404521809
6.9444627750753	0.87979470252893
6.9332205827937	0.87959605326606
6.9220147310090	0.87939809850805
6.9108450437990	0.87920083931420
6.8997113463751	0.87900427672467
6.8886134650735	0.87880841176070
6.8775512273457	0.87861324542475
6.8665244617499	0.87841877870073
6.8555329979419	0.87822501255412
6.8445766666667	0.87803194793222
6.8336552997493	0.87783958576425
6.8227687300865	0.87764792696162
6.8119167916383	0.87745697241801
6.8010993194192	0.87726672300962
6.7903161494904	0.87707717959531
6.7795671189507	0.87688834301679
6.7688520659291	0.87670021409881
6.7581708295762	0.87651279364928
6.7475232500563	0.87632608245951
6.7369091685393	0.87614008130434
6.7263284271932	0.87595479094234
6.7157808691756	0.87577021211595
6.7052663386267	0.87558634555169
6.6947846806610	0.87540319196030
6.6843357413601	0.87522075203693
6.6739193677649	0.87503902646130
6.6635354078684	0.87485801589786
6.6531837106081	0.87467772099599
6.6428641258586	0.87449814239013
6.6325765044248	0.87431928069997
6.6223206980340	0.87414113653062
6.6120965593295	0.87396371047275
6.6019039418630	0.87378700310279
6.5917427000879	0.87361101498307
6.5816126893524	0.87343574666197
6.5715137658922	0.87326119867415
6.5614457868243	0.87308737154062
6.5514086101399	0.87291426576897
6.5414020946978	0.87274188185352
6.5314261002179	0.87257022027544
6.5214804872743	0.87239928150296
6.5115651172893	0.87222906599151
6.5016798525266	0.87205957418387
6.4918245560849	0.87189080651033
6.4819990918919	0.87172276338887
6.4722033246978	0.87155544522528
6.4624371200690	0.87138885241334
6.4527003443823	0.87122298533497
6.4429928648184	0.87105784436039
6.4333145493562	0.87089342984825
6.4236652667667	0.87072974214581
6.4140448866068	0.87056678158909
6.4044532792138	0.87040454850299
6.3948903156997	0.87024304320147
6.3853558679446	0.87008226598772
6.3758498085921	0.86992221715425
6.3663720110427	0.86976289698307
6.3569223494487	0.86960430574587
6.3475006987084	0.86944644370410
6.3381069344609	0.86928931110918
6.3287409330800	0.86913290820259
6.3194025716695	0.86897723521608
6.3100917280572	0.86882229237173
6.3008082807902	0.86866807988217
6.2915521091291	0.86851459795068
6.2823230930427	0.86836184677136
6.2731211132036	0.86820982652923
6.2639460509820	0.86805853740041
6.2547977884415	0.86790797955224
6.2456762083333	0.86775815314342
6.2365811940919	0.86760905832417
6.2275126298297	0.86746069523632
6.2184704003319	0.86731306401349
6.2094543910522	0.86716616478122
6.2004644881075	0.86701999765708
6.1915005782734	0.86687456275082
6.1825625489792	0.86672986016452
6.1736502883031	0.86658588999268
6.1647636849681	0.86644265232241
6.1559026283368	0.86630014723349
6.1470670084068	0.86615837479858
6.1382567158067	0.86601733508327
6.1294716417910	0.86587702814628
6.1207116782360	0.86573745403955
6.1119767176351	0.86559861280835
6.1032666530945	0.86546050449145
6.0945813783289	0.86532312912123
6.0859207876573	0.86518648672378
6.0772847759984	0.86505057731905
6.0686732388664	0.86491540092099
6.0600860723671	0.86478095753761
6.0515231731934	0.86464724717118
6.0429844386212	0.86451426981829
6.0344697665056	0.86438202547001
6.0259790552764	0.86425051411196
6.0175122039342	0.86411973572450
6.0090691120465	0.86398969028278
6.0006496797438	0.86386037775691
5.9922538077154	0.86373179811202
5.9838813972056	0.86360395130845
5.9755323500100	0.86347683730178
5.9672065684713	0.86335045604301
5.9589039554760	0.86322480747864
5.9506244144502	0.86309989155080
5.9423678493558	0.86297570819734
5.9341341646873	0.86285225735196
5.9259232654675	0.86272953894431
5.9177350572444	0.86260755290011
5.9095694460871	0.86248629914124
5.9014263385827	0.86236577758587
5.8933056418321	0.86224598814854
5.8852072634472	0.86212693074028
5.8771311115468	0.86200860526873
5.8690770947533	0.86189101163822
5.8610451221896	0.86177414974988
5.8530351034752	0.86165801950175
5.8450469487229	0.86154262078887
5.8370805685358	0.86142795350340
5.8291358740035	0.86131401753471
5.8212127766990	0.86120081276944
5.8133111886756	0.86108833909169
5.8054310224632	0.86097659638304
5.7975721910656	0.86086558452265
5.7897346079567	0.86075530338740
5.7819181870781	0.86064575285197
5.7741228428351	0.86053693278891
5.7663484900942	0.86042884306874
5.7585950441798	0.86032148356008
5.7508624208709	0.86021485412971
5.7431505363985	0.86010895464264
5.7354593074421	0.86000378496225
5.7277886511272	0.85989934495036
5.7201384850219	0.85979563446729
5.7125087271341	0.85969265337201
5.7048992959087	0.85959040152215
5.6973101102242	0.85948887877415
5.6897410893908	0.85938808498332
5.6821921531463	0.85928802000393
5.6746632216544	0.85918868368927
5.6671542155009	0.85909007589178
5.6596650556919	0.85899219646308
5.6521956636501	0.85889504525410
5.6447459612126	0.85879862211512
5.6373158706281	0.85870292689589
5.6299053145540	0.85860795944565
5.6225142160540	0.85851371961328
5.6151424985952	0.85842020724733
5.6077900860456	0.85832742219610
5.6004569026714	0.85823536430773
5.5931428731343	0.85814403343028
5.5858479224893	0.85805342941176
5.5785719761816	0.85796355210028
5.5713149600446	0.85787440134404
5.5640768002970	0.85778597699146
5.5568574235403	0.85769827889124
5.5496567567568	0.85761130689239
5.5424747273063	0.85752506084436
5.5353112629247	0.85743954059707
5.5281662917204	0.85735474600096
5.5210397421731	0.85727067690712
5.5139315431304	0.85718733316730
5.5068416238060	0.85710471463399
5.4997699137773	0.85702282116050
5.4927163429828	0.85694165260099
5.4856808417200	0.85686120881057
5.4786633406433	0.85678148964535
5.4716637707611	0.85670249496247
5.4646820634342	0.85662422462021
5.4577181503732	0.85654667847801
5.4507719636364	0.85646985639656
5.4438434356274	0.85639375823782
5.4369324990932	0.85631838386512
5.4300390871219	0.85624373314317
5.4231631331404	0.85616980593815
5.4163045709124	0.85609660211776
5.4094633345363	0.85602412155127
5.4026393584430	0.85595236410954
5.3958325773938	0.85588132966513
5.3890429264785	0.85581101809232
5.3822703411131	0.85574142926714
5.3755147570378	0.85567256306747
5.3687761103152	0.85560441937304
5.3620543373278	0.85553699806551
5.3553493747767	0.85547029902851
5.3486611596789	0.85540432214765
5.3419896293656	0.85533906731063
5.3353347214807	0.85527453440724
5.3286963739780	0.85521072332940
5.3220745251198	0.85514763397125
5.3154691134752	0.85508526622913
5.3088800779175	0.85502362000165
5.3023073576229	0.85496269518976
5.2957508920685	0.85490249169672
5.2892106210303	0.85484300942822
5.2826864845815	0.85478424829235
5.2761784230905	0.85472620819966
5.2696863772192	0.85466888906322
5.2632102879213	0.85461229079862
5.2567500964405	0.85455641332404
5.2503057443082	0.85450125656024
5.2438771733427	0.85444682043063
5.2374643256464	0.85439310486128
5.2310671436050	0.85434010978098
5.2246855698850	0.85428783512124
5.2183195474326	0.85423628081632
5.2119690194715	0.85418544680327
5.2056339295016	0.85413533302199
5.1993142212973	0.85408593941519
5.1930098389052	0.85403726592846
5.1867207266436	0.85398931251029
5.1804468290997	0.85394207911210
5.1741880911288	0.85389556568824
5.1679444578521	0.85384977219603
5.1617158746556	0.85380469859581
5.1555022871883	0.85376034485090
5.1493036413604	0.85371671092766
5.1431198833419	0.85367379679551
5.1369509595613	0.85363160242694
5.1307968167037	0.85359012779754
5.1246574017094	0.85354937288599
5.1185326617722	0.85350933767412
5.1124225443383	0.85347002214686
5.1063269971044	0.85343142629235
5.1002459680163	0.85339355010185
5.0941794052676	0.85335639356984
5.0881272572980	0.85331995669398
5.0820894727920	0.85328423947514
5.0760660006773	0.85324924191739
5.0700567901235	0.85321496402808
5.0640617905405	0.85318140581774
5.0580809515775	0.85314856730018
5.0521142231210	0.85311644849246
5.0461615552937	0.85308504941490
5.0402228984533	0.85305437009108
5.0342982031906	0.85302441054787
5.0283874203287	0.85299517081540
5.0224905009214	0.85296665092709
5.0166073962517	0.85293885091964
5.0107380578305	0.85291177083303
5.0048824373957	0.85288541071056
4.9990404869101	0.85285977059876
4.9932121585610	0.85283485054751
4.9873974047579	0.85281065060993
4.9815961781323	0.85278717084245
4.9758084315353	0.85276441130476
4.9700341180371	0.85274237205985
4.9642731909256	0.85272105317397
4.9585256037049	0.85270045471665
4.9527913100942	0.85268057676066
4.9470702640264	0.85266141938204
4.9413624196473	0.85264298266009
4.9356677313138	0.85262526667733
4.9299861535932	0.85260827151952
4.9243176412615	0.85259199727563
4.9186621493027	0.85257644403786
4.9130196329072	0.85256161190158
4.9073900474709	0.85254750096536
4.9017733485939	0.85253411133095
4.8961694920790	0.85252144310325
4.8905784339315	0.85250949639029
4.8850001303569	0.85249827130326
4.8794345377604	0.85248776795643
4.8738816127459	0.85247798646718
4.8683413121143	0.85246892695596
4.8628135928629	0.85246058954628
4.8572984121841	0.85245297436469
4.8517957274640	0.85244608154075
4.8463054962819	0.85243991120702
4.8408276764088	0.85243446349903
4.8353622258065	0.85242973855527
