#Parameters = {thARC=0.2; nARC=2.25; thsub=1; p=1; nSub=1.75}
#"Wavelength / um"	"T (194) [Real Part]"
#---------------------------------------
14.989622900000	0.91876440468465
14.937342202292	0.91879188922049
14.885424925521	0.91881801887001
14.833867293419	0.91884280259689
14.782665581854	0.91886624935745
14.731816117936	0.91888836810015
14.681315279138	0.91890916776517
14.631159492435	0.91892865728393
14.581345233463	0.91894684557872
14.531869025691	0.91896374156220
14.482727439614	0.91897935413700
14.433917091960	0.91899369219526
14.385434644914	0.91900676461826
14.337276805356	0.91901858027594
14.289440324118	0.91902914802650
14.241921995249	0.91903847671600
14.194718655303	0.91904657517793
14.147827182633	0.91905345223280
14.101244496707	0.91905911668774
14.054967557431	0.91906357733609
14.008993364486	0.91906684295700
13.963318956684	0.91906892231506
13.917941411328	0.91906982415986
13.872857843591	0.91906955722564
13.828065405904	0.91906813023088
13.783561287356	0.91906555187794
13.739342713107	0.91906183085265
13.695406943810	0.91905697582397
13.651751275046	0.91905099544359
13.608373036768	0.91904389834556
13.565269592760	0.91903569314595
13.522438340099	0.91902638844246
13.479876708633	0.91901599281408
13.437582160466	0.91900451482073
13.395552189455	0.91899196300291
13.353784320713	0.91897834588132
13.312276110124	0.91896367195659
13.271025143869	0.91894794970886
13.230029037952	0.91893118759748
13.189285437747	0.91891339406068
13.148792017544	0.91889457751522
13.108546480105	0.91887474635607
13.068546556234	0.91885390895609
13.028790004346	0.91883207366574
12.989274610052	0.91880924881267
12.949998185745	0.91878544270154
12.910958570198	0.91876066361357
12.872153628167	0.91873491980637
12.833581250000	0.91870821951351
12.795239351259	0.91868057094432
12.757125872340	0.91865198228355
12.719238778108	0.91862246169108
12.681576057530	0.91859201730162
12.644135723323	0.91856065722448
12.606915811606	0.91852838954320
12.569914381551	0.91849522231537
12.533129515050	0.91846116357226
12.496559316382	0.91842622131864
12.460201911887	0.91839040353243
12.424055449648	0.91835371816450
12.388118099174	0.91831617313837
12.352388051092	0.91827777634999
12.316863516845	0.91823853566742
12.281542728390	0.91819845893067
12.246423937908	0.91815755395138
12.211505417515	0.91811582851261
12.176785458976	0.91807329036860
12.142262373431	0.91802994724452
12.107934491115	0.91798580683625
12.073800161095	0.91794087681014
12.039857751004	0.91789516480281
12.006105646776	0.91784867842088
11.972542252396	0.91780142524081
11.939165989646	0.91775341280863
11.905975297855	0.91770464863976
11.872968633663	0.91765514021879
11.840144470774	0.91760489499929
11.807501299724	0.91755392040357
11.775037627651	0.91750222382254
11.742751978065	0.91744981261546
11.710642890625	0.91739669410977
11.678708920919	0.91734287560091
11.646948640249	0.91728836435212
11.615360635413	0.91723316759427
11.583943508501	0.91717729252567
11.552695876686	0.91712074631191
11.521616372022	0.91706353608566
11.490703641242	0.91700566894653
11.459956345566	0.91694715196091
11.429373160503	0.91688799216177
11.398952775665	0.91682819654853
11.368693894577	0.91676777208690
11.338595234493	0.91670672570871
11.308655526217	0.91664506431180
11.278873513920	0.91658279475983
11.249247954972	0.91651992388217
11.219777619760	0.91645645847373
11.190461291527	0.91639240529486
11.161297766195	0.91632777107118
11.132285852209	0.91626256249347
11.103424370370	0.91619678621753
11.074712153676	0.91613044886410
11.046148047163	0.91606355701865
11.017730907755	0.91599611723135
10.989459604106	0.91592813601692
10.961333016453	0.91585961985451
10.933350036470	0.91579057518759
10.905509567115	0.91572100842387
10.877810522496	0.91565092593517
10.850251827723	0.91558033405734
10.822832418773	0.91550923909014
10.795551242348	0.91543764729716
10.768407255747	0.91536556490575
10.741399426729	0.91529299810688
10.714526733381	0.91521995305511
10.687788163993	0.91514643586846
10.661182716927	0.91507245262837
10.634709400497	0.91499800937960
10.608367232838	0.91492311213016
10.582155241793	0.91484776685123
10.556072464789	0.91477197947713
10.530117948718	0.91469575590521
10.504290749825	0.91461910199580
10.478589933590	0.91454202357216
10.453014574616	0.91446452642043
10.427563756522	0.91438661628953
10.402236571825	0.91430829889119
10.377032121841	0.91422957989979
10.351949516575	0.91415046495243
10.326987874612	0.91407095964881
10.302146323024	0.91399106955121
10.277423997257	0.91391080018445
10.252820041040	0.91383015703587
10.228333606278	0.91374914555525
10.203963852961	0.91366777115485
10.179709949066	0.91358603920933
10.155571070461	0.91350395505573
10.131546400811	0.91342152399346
10.107635131490	0.91333875128428
10.083836461487	0.91325564215227
10.060149597315	0.91317220178382
10.036573752929	0.91308843532762
10.013108149633	0.91300434789464
9.9897520159947	0.91291994455813
9.9665045877660	0.91283523035363
9.9433651077944	0.91275021027891
9.9203328259431	0.91266488929405
9.8974069990096	0.91257927232136
9.8745868906456	0.91249336424545
9.8518717712783	0.91240716991318
9.8292609180328	0.91232069413372
9.8067536146549	0.91223394167851
9.7843491514360	0.91214691728133
9.7620468251384	0.91205962563824
9.7398459389214	0.91197207140768
9.7177458022690	0.91188425921042
9.6957457309185	0.91179619362961
9.6738450467893	0.91170787921083
9.6520430779137	0.91161932046205
9.6303391583681	0.91153052185373
9.6087326282051	0.91144148781880
9.5872228333866	0.91135222275269
9.5658091257179	0.91126273101342
9.5444908627826	0.91117301692157
9.5232674078780	0.91108308476035
9.5021381299525	0.91099293877565
9.4811024035421	0.91090258317605
9.4601596087094	0.91081202213289
9.4393091309824	0.91072125978031
9.4185503612944	0.91063030021530
9.3978826959248	0.91053914749773
9.3773055364404	0.91044780565044
9.3568182896380	0.91035627865926
9.3364203674868	0.91026457047308
9.3161111870727	0.91017268500390
9.2958901705426	0.91008062612689
9.2757567450495	0.90998839768049
9.2557103426984	0.90989600346639
9.2357504004929	0.90980344724968
9.2158763602828	0.90971073275886
9.1960876687117	0.90961786368595
9.1763837771656	0.90952484368651
9.1567641417227	0.90943167637977
9.1372282231027	0.90933836534866
9.1177754866180	0.90924491413989
9.0984054021244	0.90915132626405
9.0791174439733	0.90905760519568
9.0599110909640	0.90896375437334
9.0407858262967	0.90886977719968
9.0217411375263	0.90877567704157
9.0027765165165	0.90868145723013
8.9838914593947	0.90858712106087
8.9650854665072	0.90849267179372
8.9463580423754	0.90839811265318
8.9277086956522	0.90830344682836
8.9091369390788	0.90820867747311
8.8906422894425	0.90811380770608
8.8722242675348	0.90801884061086
8.8538823981099	0.90792377923603
8.8356162098438	0.90782862659530
8.8174252352941	0.90773338566757
8.7993090108600	0.90763805939708
8.7812670767428	0.90754265069346
8.7632989769073	0.90744716243187
8.7454042590432	0.90735159745310
8.7275824745269	0.90725595856366
8.7098331783847	0.90716024853593
8.6921559292549	0.90706447010820
8.6745502893519	0.90696862598486
8.6570158244297	0.90687271883646
8.6395521037464	0.90677675129982
8.6221587000288	0.90668072597820
8.6048351894374	0.90658464544134
8.5875811515325	0.90648851222566
8.5703961692396	0.90639232883429
8.5532798288160	0.90629609773726
8.5362317198178	0.90619982137161
8.5192514350668	0.90610350214146
8.5023385706183	0.90600714241821
8.4854927257288	0.90591074454060
8.4687135028249	0.90581431081487
8.4520005074711	0.90571784351488
8.4353533483399	0.90562134488224
8.4187716371806	0.90552481712643
8.4022549887892	0.90542826242493
8.3858030209790	0.90533168292336
8.3694153545505	0.90523508073562
8.3530916132627	0.90513845794399
8.3368314238042	0.90504181659931
8.3206344157646	0.90494515872106
8.3045002216066	0.90484848629756
8.2884284766381	0.90475180128605
8.2724188189845	0.90465510561285
8.2564708895621	0.90455840117352
8.2405843320506	0.90446168983298
8.2247587928669	0.90436497342562
8.2089939211391	0.90426825375550
8.1932893686800	0.90417153259648
8.1776447899618	0.90407481169230
8.1620598420909	0.90397809275682
8.1465341847826	0.90388137747410
8.1310674803363	0.90378466749856
8.1156593936113	0.90368796445515
8.1003095920022	0.90359126993946
8.0850177454153	0.90349458551789
8.0697835262450	0.90339791272781
8.0546066093498	0.90330125307768
8.0394866720300	0.90320460804724
8.0244233940043	0.90310797908761
8.0094164573871	0.90301136762150
7.9944655466667	0.90291477504332
7.9795703486825	0.90281820271936
7.9647305526036	0.90272165198790
7.9499458499072	0.90262512415944
7.9352159343568	0.90252862051679
7.9205405019815	0.90243214231525
7.9059192510549	0.90233569078277
7.8913518820742	0.90223926712012
7.8768380977404	0.90214287250101
7.8623776029373	0.90204650807229
7.8479701047120	0.90195017495406
7.8336153122550	0.90185387423991
7.8193129368805	0.90175760699699
7.8050626920073	0.90166137426624
7.7908642931393	0.90156517706251
7.7767174578470	0.90146901637475
7.7626219057483	0.90137289316614
7.7485773584906	0.90127680837430
7.7345835397317	0.90118076291140
7.7206401751223	0.90108475766439
7.7067469922879	0.90098879349509
7.6929037208109	0.90089287124040
7.6791100922131	0.90079699171249
7.6653658399386	0.90070115569888
7.6516706993364	0.90060536396272
7.6380244076433	0.90050961724285
7.6244267039674	0.90041391625404
7.6108773292714	0.90031826168713
7.5973760263558	0.90022265420920
7.5839225398432	0.90012709446375
7.5705166161616	0.90003158307084
7.5571580035291	0.89993612062730
7.5438464519376	0.89984070770687
7.5305817131374	0.89974534486039
7.5173635406219	0.89965003261594
7.5041916896120	0.89955477147904
7.4910659170415	0.89945956193282
7.4779859815415	0.89936440443818
7.4649516434263	0.89926929943396
7.4519626646781	0.89917424733712
7.4390188089330	0.89907924854291
7.4261198414664	0.89898430342504
7.4132655291790	0.89888941233586
7.4004556405826	0.89879457560652
7.3876899457861	0.89869979354716
7.3749682164822	0.89860506644707
7.3622902259332	0.89851039457487
7.3496557489581	0.89841577817868
7.3370645619187	0.89832121748629
7.3245164427071	0.89822671270535
7.3120111707317	0.89813226402355
7.2995485269053	0.89803787160875
7.2871282936315	0.89794353560919
7.2747502547925	0.89784925615368
7.2624141957364	0.89775503335173
7.2501199032648	0.89766086729377
7.2378671656205	0.89756675805130
7.2256557724753	0.89747270567706
7.2134855149182	0.89737871020521
7.2013561854432	0.89728477165155
7.1892675779376	0.89719089001360
7.1772194876706	0.89709706527089
7.1652117112811	0.89700329738504
7.1532440467669	0.89690958629999
7.1413162934731	0.89681593194215
7.1294282520809	0.89672233422060
7.1175797245964	0.89662879302725
7.1057705143399	0.89653530823700
7.0940004259347	0.89644187970796
7.0822692652965	0.89634850728159
7.0705768396226	0.89625519078287
7.0589229573817	0.89616193002051
7.0473074283028	0.89606872478712
7.0357300633654	0.89597557485934
7.0241906747891	0.89588247999808
7.0126890760234	0.89578943994865
7.0012250817375	0.89569645444095
6.9897985078107	0.89560352318967
6.9784091713222	0.89551064589440
6.9670568905415	0.89541782223989
6.9557414849188	0.89532505189616
6.9444627750753	0.89523233451871
6.9332205827937	0.89513966974868
6.9220147310090	0.89504705721303
6.9108450437990	0.89495449652470
6.8997113463751	0.89486198728282
6.8886134650735	0.89476952907286
6.8775512273457	0.89467712146680
6.8665244617499	0.89458476402331
6.8555329979419	0.89449245628795
6.8445766666667	0.89440019779328
6.8336552997493	0.89430798805912
6.8227687300865	0.89421582659264
6.8119167916383	0.89412371288860
6.8010993194192	0.89403164642948
6.7903161494904	0.89393962668567
6.7795671189507	0.89384765311565
6.7688520659291	0.89375572516614
6.7581708295762	0.89366384227229
6.7475232500563	0.89357200385785
6.7369091685393	0.89348020933535
6.7263284271932	0.89338845810625
6.7157808691756	0.89329674956111
6.7052663386267	0.89320508307980
6.6947846806610	0.89311345803164
6.6843357413601	0.89302187377556
6.6739193677649	0.89293032966029
6.6635354078684	0.89283882502454
6.6531837106081	0.89274735919714
6.6428641258586	0.89265593149723
6.6325765044248	0.89256454123442
6.6223206980340	0.89247318770897
6.6120965593295	0.89238187021194
6.6019039418630	0.89229058802537
6.5917427000879	0.89219934042246
6.5816126893524	0.89210812666770
6.5715137658922	0.89201694601708
6.5614457868243	0.89192579771821
6.5514086101399	0.89183468101055
6.5414020946978	0.89174359512552
6.5314261002179	0.89165253928666
6.5214804872743	0.89156151270986
6.5115651172893	0.89147051460345
6.5016798525266	0.89137954416842
6.4918245560849	0.89128860059855
6.4819990918919	0.89119768308058
6.4722033246978	0.89110679079438
6.4624371200690	0.89101592291312
6.4527003443823	0.89092507860340
6.4429928648184	0.89083425702545
6.4333145493562	0.89074345733327
6.4236652667667	0.89065267867479
6.4140448866068	0.89056192019204
6.4044532792138	0.89047118102129
6.3948903156997	0.89038046029324
6.3853558679446	0.89028975713316
6.3758498085921	0.89019907066103
6.3663720110427	0.89010839999174
6.3569223494487	0.89001774423521
6.3475006987084	0.88992710249657
6.3381069344609	0.88983647387629
6.3287409330800	0.88974585747039
6.3194025716695	0.88965525237051
6.3100917280572	0.88956465766414
6.3008082807902	0.88947407243473
6.2915521091291	0.88938349576189
6.2823230930427	0.88929292672147
6.2731211132036	0.88920236438577
6.2639460509820	0.88911180782370
6.2547977884415	0.88902125610086
6.2456762083333	0.88893070827977
6.2365811940919	0.88884016341998
6.2275126298297	0.88874962057823
6.2184704003319	0.88865907880857
6.2094543910522	0.88856853716256
6.2004644881075	0.88847799468937
6.1915005782734	0.88838745043597
6.1825625489792	0.88829690344723
6.1736502883031	0.88820635276609
6.1647636849681	0.88811579743372
6.1559026283368	0.88802523648963
6.1470670084068	0.88793466897185
6.1382567158067	0.88784409391702
6.1294716417910	0.88775351036060
6.1207116782360	0.88766291733696
6.1119767176351	0.88757231387954
6.1032666530945	0.88748169902099
6.0945813783289	0.88739107179331
6.0859207876573	0.88730043122799
6.0772847759984	0.88720977635613
6.0686732388664	0.88711910620861
6.0600860723671	0.88702841981620
6.0515231731934	0.88693771620970
6.0429844386212	0.88684699442010
6.0344697665056	0.88675625347867
6.0259790552764	0.88666549241713
6.0175122039342	0.88657471026778
6.0090691120465	0.88648390606362
6.0006496797438	0.88639307883846
5.9922538077154	0.88630222762712
5.9838813972056	0.88621135146549
5.9755323500100	0.88612044939069
5.9672065684713	0.88602952044120
5.9589039554760	0.88593856365697
5.9506244144502	0.88584757807958
5.9423678493558	0.88575656275232
5.9341341646873	0.88566551672037
5.9259232654675	0.88557443903087
5.9177350572444	0.88548332873309
5.9095694460871	0.88539218487852
5.9014263385827	0.88530100652101
5.8933056418321	0.88520979271688
5.8852072634472	0.88511854252506
5.8771311115468	0.88502725500719
5.8690770947533	0.88493592922774
5.8610451221896	0.88484456425415
5.8530351034752	0.88475315915692
5.8450469487229	0.88466171300974
5.8370805685358	0.88457022488960
5.8291358740035	0.88447869387692
5.8212127766990	0.88438711905565
5.8133111886756	0.88429549951337
5.8054310224632	0.88420383434144
5.7975721910656	0.88411212263507
5.7897346079567	0.88402036349348
5.7819181870781	0.88392855601994
5.7741228428351	0.88383669932194
5.7663484900942	0.88374479251129
5.7585950441798	0.88365283470418
5.7508624208709	0.88356082502135
5.7431505363985	0.88346876258816
5.7354593074421	0.88337664653467
5.7277886511272	0.88328447599582
5.7201384850219	0.88319225011144
5.7125087271341	0.88309996802643
5.7048992959087	0.88300762889081
5.6973101102242	0.88291523185985
5.6897410893908	0.88282277609414
5.6821921531463	0.88273026075972
5.6746632216544	0.88263768502815
5.6671542155009	0.88254504807663
5.6596650556919	0.88245234908807
5.6521956636501	0.88235958725120
5.6447459612126	0.88226676176067
5.6373158706281	0.88217387181713
5.6299053145540	0.88208091662732
5.6225142160540	0.88198789540415
5.6151424985952	0.88189480736683
5.6077900860456	0.88180165174093
5.6004569026714	0.88170842775845
5.5931428731343	0.88161513465794
5.5858479224893	0.88152177168458
5.5785719761816	0.88142833809025
5.5713149600446	0.88133483313362
5.5640768002970	0.88124125608023
5.5568574235403	0.88114760620258
5.5496567567568	0.88105388278022
5.5424747273063	0.88096008509979
5.5353112629247	0.88086621245515
5.5281662917204	0.88077226414742
5.5210397421731	0.88067823948508
5.5139315431304	0.88058413778401
5.5068416238060	0.88048995836762
5.4997699137773	0.88039570056689
5.4927163429828	0.88030136372043
5.4856808417200	0.88020694717459
5.4786633406433	0.88011245028350
5.4716637707611	0.88001787240915
5.4646820634342	0.87992321292146
5.4577181503732	0.87982847119834
5.4507719636364	0.87973364662578
5.4438434356274	0.87963873859789
5.4369324990932	0.87954374651697
5.4300390871219	0.87944866979359
5.4231631331404	0.87935350784662
5.4163045709124	0.87925826010333
5.4094633345363	0.87916292599943
5.4026393584430	0.87906750497913
5.3958325773938	0.87897199649520
5.3890429264785	0.87887640000903
5.3822703411131	0.87878071499069
5.3755147570378	0.87868494091897
5.3687761103152	0.87858907728147
5.3620543373278	0.87849312357458
5.3553493747767	0.87839707930364
5.3486611596789	0.87830094398289
5.3419896293656	0.87820471713559
5.3353347214807	0.87810839829401
5.3286963739780	0.87801198699954
5.3220745251198	0.87791548280270
5.3154691134752	0.87781888526319
5.3088800779175	0.87772219394993
5.3023073576229	0.87762540844113
5.2957508920685	0.87752852832430
5.2892106210303	0.87743155319632
5.2826864845815	0.87733448266346
5.2761784230905	0.87723731634144
5.2696863772192	0.87714005385543
5.2632102879213	0.87704269484014
5.2567500964405	0.87694523893983
5.2503057443082	0.87684768580833
5.2438771733427	0.87675003510910
5.2374643256464	0.87665228651526
5.2310671436050	0.87655443970961
5.2246855698850	0.87645649438468
5.2183195474326	0.87635845024272
5.2119690194715	0.87626030699578
5.2056339295016	0.87616206436572
5.1993142212973	0.87606372208423
5.1930098389052	0.87596527989284
5.1867207266436	0.87586673754298
5.1804468290997	0.87576809479599
5.1741880911288	0.87566935142314
5.1679444578521	0.87557050720564
5.1617158746556	0.87547156193468
5.1555022871883	0.87537251541146
5.1493036413604	0.87527336744715
5.1431198833419	0.87517411786299
5.1369509595613	0.87507476649024
5.1307968167037	0.87497531317024
5.1246574017094	0.87487575775439
5.1185326617722	0.87477610010417
5.1124225443383	0.87467634009119
5.1063269971044	0.87457647759715
5.1002459680163	0.87447651251387
5.0941794052676	0.87437644474330
5.0881272572980	0.87427627419755
5.0820894727920	0.87417600079885
5.0760660006773	0.87407562447960
5.0700567901235	0.87397514518233
5.0640617905405	0.87387456285977
5.0580809515775	0.87377387747477
5.0521142231210	0.87367308900038
5.0461615552937	0.87357219741978
5.0402228984533	0.87347120272636
5.0342982031906	0.87337010492362
5.0283874203287	0.87326890402526
5.0224905009214	0.87316760005512
5.0166073962517	0.87306619304720
5.0107380578305	0.87296468304563
5.0048824373957	0.87286307010470
4.9990404869101	0.87276135428882
4.9932121585610	0.87265953567253
4.9873974047579	0.87255761434048
4.9815961781323	0.87245559038742
4.9758084315353	0.87235346391818
4.9700341180371	0.87225123504770
4.9642731909256	0.87214890390095
4.9585256037049	0.87204647061296
4.9527913100942	0.87194393532880
4.9470702640264	0.87184129820355
4.9413624196473	0.87173855940229
4.9356677313138	0.87163571910007
4.9299861535932	0.87153277748191
4.9243176412615	0.87142973474275
4.9186621493027	0.87132659108746
4.9130196329072	0.87122334673080
4.9073900474709	0.87112000189740
4.9017733485939	0.87101655682171
4.8961694920790	0.87091301174803
4.8905784339315	0.87080936693043
4.8850001303569	0.87070562263274
4.8794345377604	0.87060177912853
4.8738816127459	0.87049783670106
4.8683413121143	0.87039379564327
4.8628135928629	0.87028965625775
4.8572984121841	0.87018541885666
4.8517957274640	0.87008108376176
4.8463054962819	0.86997665130435
4.8408276764088	0.86987212182520
4.8353622258065	0.86976749567457
