#Parameters = {thARC=1; nARC=3; thsub=1; p=1; nSub=1.75}
#"Wavelength / um"	"T (216) [Real Part]"
#---------------------------------------
14.989622900000	0.56730762021156
14.937342202292	0.56669567707142
14.885424925521	0.56609231560374
14.833867293419	0.56549753952143
14.782665581854	0.56491135230989
14.731816117936	0.56433375723576
14.681315279138	0.56376475735562
14.631159492435	0.56320435552449
14.581345233463	0.56265255440418
14.531869025691	0.56210935647156
14.482727439614	0.56157476402666
14.433917091960	0.56104877920057
14.385434644914	0.56053140396335
14.337276805356	0.56002264013167
14.289440324118	0.55952248937638
14.241921995249	0.55903095322991
14.194718655303	0.55854803309362
14.147827182633	0.55807373024489
14.101244496707	0.55760804584422
14.054967557431	0.55715098094208
14.008993364486	0.55670253648571
13.963318956684	0.55626271332577
13.917941411328	0.55583151222286
13.872857843591	0.55540893385391
13.828065405904	0.55499497881846
13.783561287356	0.55458964764481
13.739342713107	0.55419294079606
13.695406943810	0.55380485867601
13.651751275046	0.55342540163496
13.608373036768	0.55305456997535
13.565269592760	0.55269236395737
13.522438340099	0.55233878380433
13.479876708633	0.55199382970805
13.437582160466	0.55165750183400
13.395552189455	0.55132980032644
13.353784320713	0.55101072531339
13.312276110124	0.55070027691148
13.271025143869	0.55039845523072
13.230029037952	0.55010526037916
13.189285437747	0.54982069246740
13.148792017544	0.54954475161303
13.108546480105	0.54927743794497
13.068546556234	0.54901875160765
13.028790004346	0.54876869276516
12.989274610052	0.54852726160522
12.949998185745	0.54829445834309
12.910958570198	0.54807028322539
12.872153628167	0.54785473653376
12.833581250000	0.54764781858848
12.795239351259	0.54744952975193
12.757125872340	0.54725987043203
12.719238778108	0.54707884108547
12.681576057530	0.54690644222098
12.644135723323	0.54674267440233
12.606915811606	0.54658753825141
12.569914381551	0.54644103445110
12.533129515050	0.54630316374804
12.496559316382	0.54617392695541
12.460201911887	0.54605332495545
12.424055449648	0.54594135870207
12.388118099174	0.54583802922322
12.352388051092	0.54574333762321
12.316863516845	0.54565728508499
12.281542728390	0.54557987287227
12.246423937908	0.54551110233155
12.211505417515	0.54545097489412
12.176785458976	0.54539949207791
12.142262373431	0.54535665548925
12.107934491115	0.54532246682458
12.073800161095	0.54529692787204
12.039857751004	0.54528004051296
12.006105646776	0.54527180672330
11.972542252396	0.54527222857495
11.939165989646	0.54528130823698
11.905975297855	0.54529904797678
11.872968633663	0.54532545016112
11.840144470774	0.54536051725713
11.807501299724	0.54540425183316
11.775037627651	0.54545665655958
11.742751978065	0.54551773420948
11.710642890625	0.54558748765928
11.678708920919	0.54566591988927
11.646948640249	0.54575303398401
11.615360635413	0.54584883313274
11.583943508501	0.54595332062956
11.552695876686	0.54606649987368
11.521616372022	0.54618837436942
11.490703641242	0.54631894772627
11.459956345566	0.54645822365877
11.429373160503	0.54660620598629
11.398952775665	0.54676289863280
11.368693894577	0.54692830562650
11.338595234493	0.54710243109931
11.308655526217	0.54728527928640
11.278873513920	0.54747685452550
11.249247954972	0.54767716125618
11.219777619760	0.54788620401905
11.190461291527	0.54810398745480
11.161297766195	0.54833051630328
11.132285852209	0.54856579540232
11.103424370370	0.54880982968657
11.074712153676	0.54906262418622
11.046148047163	0.54932418402565
11.017730907755	0.54959451442188
10.989459604106	0.54987362068307
10.961333016453	0.55016150820684
10.933350036470	0.55045818247850
10.905509567115	0.55076364906918
10.877810522496	0.55107791363390
10.850251827723	0.55140098190951
10.822832418773	0.55173285971250
10.795551242348	0.55207355293679
10.768407255747	0.55242306755137
10.741399426729	0.55278140959780
10.714526733381	0.55314858518770
10.687788163993	0.55352460050005
10.661182716927	0.55390946177845
10.634709400497	0.55430317532820
10.608367232838	0.55470574751339
10.582155241793	0.55511718475374
10.556072464789	0.55553749352145
10.530117948718	0.55596668033788
10.504290749825	0.55640475177012
10.478589933590	0.55685171442749
10.453014574616	0.55730757495788
10.427563756522	0.55777234004399
10.402236571825	0.55824601639948
10.377032121841	0.55872861076497
10.351949516575	0.55922012990395
10.326987874612	0.55972058059853
10.302146323024	0.56022996964514
10.277423997257	0.56074830385004
10.252820041040	0.56127559002473
10.228333606278	0.56181183498125
10.203963852961	0.56235704552738
10.179709949066	0.56291122846161
10.155571070461	0.56347439056811
10.131546400811	0.56404653861148
10.107635131490	0.56462767933143
10.083836461487	0.56521781943728
10.060149597315	0.56581696560233
10.036573752929	0.56642512445815
10.013108149633	0.56704230258869
9.9897520159947	0.56766850652421
9.9665045877660	0.56830374273518
9.9433651077944	0.56894801762592
9.9203328259431	0.56960133752822
9.8974069990096	0.57026370869466
9.8745868906456	0.57093513729194
9.8518717712783	0.57161562939400
9.8292609180328	0.57230519097494
9.8067536146549	0.57300382790185
9.7843491514360	0.57371154592751
9.7620468251384	0.57442835068286
9.7398459389214	0.57515424766935
9.7177458022690	0.57588924225118
9.6957457309185	0.57663333964729
9.6738450467893	0.57738654492327
9.6520430779137	0.57814886298305
9.6303391583681	0.57892029856046
9.6087326282051	0.57970085621063
9.5872228333866	0.58049054030117
9.5658091257179	0.58128935500325
9.5444908627826	0.58209730428249
9.5232674078780	0.58291439188960
9.5021381299525	0.58374062135099
9.4811024035421	0.58457599595908
9.4601596087094	0.58542051876247
9.4393091309824	0.58627419255597
9.4185503612944	0.58713701987039
9.3978826959248	0.58800900296220
9.3773055364404	0.58889014380296
9.3568182896380	0.58978044406859
9.3364203674868	0.59067990512847
9.3161111870727	0.59158852803430
9.2958901705426	0.59250631350881
9.2757567450495	0.59343326193427
9.2557103426984	0.59436937334083
9.2357504004929	0.59531464739459
9.2158763602828	0.59626908338556
9.1960876687117	0.59723268021539
9.1763837771656	0.59820543638487
9.1567641417227	0.59918734998129
9.1372282231027	0.60017841866554
9.1177754866180	0.60117863965907
9.0984054021244	0.60218800973057
9.0791174439733	0.60320652518252
9.0599110909640	0.60423418183748
9.0407858262967	0.60527097502421
9.0217411375263	0.60631689956355
9.0027765165165	0.60737194975414
8.9838914593947	0.60843611935785
8.9650854665072	0.60950940158510
8.9463580423754	0.61059178907988
8.9277086956522	0.61168327390463
8.9091369390788	0.61278384752483
8.8906422894425	0.61389350079348
8.8722242675348	0.61501222393527
8.8538823981099	0.61614000653059
8.8356162098438	0.61727683749934
8.8174252352941	0.61842270508445
8.7993090108600	0.61957759683530
8.7812670767428	0.62074149959080
8.7632989769073	0.62191439946242
8.7454042590432	0.62309628181682
8.7275824745269	0.62428713125841
8.7098331783847	0.62548693161166
8.6921559292549	0.62669566590316
8.6745502893519	0.62791331634354
8.6570158244297	0.62913986430912
8.6395521037464	0.63037529032339
8.6221587000288	0.63161957403827
8.6048351894374	0.63287269421521
8.5875811515325	0.63413462870598
8.5703961692396	0.63540535443340
8.5532798288160	0.63668484737175
8.5362317198178	0.63797308252707
8.5192514350668	0.63927003391724
8.5023385706183	0.64057567455185
8.4854927257288	0.64188997641188
8.4687135028249	0.64321291042925
8.4520005074711	0.64454444646615
8.4353533483399	0.64588455329415
8.4187716371806	0.64723319857323
8.4022549887892	0.64859034883058
8.3858030209790	0.64995596943922
8.3694153545505	0.65133002459652
8.3530916132627	0.65271247730250
8.3368314238042	0.65410328933801
8.3206344157646	0.65550242124277
8.3045002216066	0.65690983229325
8.2884284766381	0.65832548048042
8.2724188189845	0.65974932248737
8.2564708895621	0.66118131366682
8.2405843320506	0.66262140801850
8.2247587928669	0.66406955816641
8.2089939211391	0.66552571533600
8.1932893686800	0.66698982933124
8.1776447899618	0.66846184851162
8.1620598420909	0.66994171976904
8.1465341847826	0.67142938850467
8.1310674803363	0.67292479860569
8.1156593936113	0.67442789242205
8.1003095920022	0.67593861074313
8.0850177454153	0.67745689277440
8.0697835262450	0.67898267611400
8.0546066093498	0.68051589672942
8.0394866720300	0.68205648893405
8.0244233940043	0.68360438536380
8.0094164573871	0.68515951695380
7.9944655466667	0.68672181291497
7.9795703486825	0.68829120071085
7.9647305526036	0.68986760603427
7.9499458499072	0.69145095278428
7.9352159343568	0.69304116304304
7.9205405019815	0.69463815705286
7.9059192510549	0.69624185319335
7.8913518820742	0.69785216795871
7.8768380977404	0.69946901593512
7.8623776029373	0.70109230977834
7.8479701047120	0.70272196019147
7.8336153122550	0.70435787590287
7.8193129368805	0.70599996364437
7.8050626920073	0.70764812812960
7.7908642931393	0.70930227203267
7.7767174578470	0.71096229596701
7.7626219057483	0.71262809846460
7.7485773584906	0.71429957595541
7.7345835397317	0.71597662274724
7.7206401751223	0.71765913100578
7.7067469922879	0.71934699073521
7.6929037208109	0.72104008975899
7.6791100922131	0.72273831370122
7.6653658399386	0.72444154596829
7.6516706993364	0.72614966773107
7.6380244076433	0.72786255790752
7.6244267039674	0.72958009314582
7.6108773292714	0.73130214780799
7.5973760263558	0.73302859395407
7.5839225398432	0.73475930132683
7.5705166161616	0.73649413733713
7.5571580035291	0.73823296704982
7.5438464519376	0.73997565317033
7.5305817131374	0.74172205603187
7.5173635406219	0.74347203358338
7.5041916896120	0.74522544137815
7.4910659170415	0.74698213256318
7.4779859815415	0.74874195786933
7.4649516434263	0.75050476560225
7.4519626646781	0.75227040163411
7.4390188089330	0.75403870939621
7.4261198414664	0.75580952987246
7.4132655291790	0.75758270159373
7.4004556405826	0.75935806063315
7.3876899457861	0.76113544060238
7.3749682164822	0.76291467264887
7.3622902259332	0.76469558545404
7.3496557489581	0.76647800523269
7.3370645619187	0.76826175573324
7.3245164427071	0.77004665823929
7.3120111707317	0.77183253157216
7.2995485269053	0.77361919209461
7.2871282936315	0.77540645371582
7.2747502547925	0.77719412789746
7.2624141957364	0.77898202366107
7.2501199032648	0.78076994759670
7.2378671656205	0.78255770387281
7.2256557724753	0.78434509424753
7.2134855149182	0.78613191808118
7.2013561854432	0.78791797235028
7.1892675779376	0.78970305166288
7.1772194876706	0.79148694827528
7.1652117112811	0.79326945211031
7.1532440467669	0.79505035077695
7.1413162934731	0.79682942959155
7.1294282520809	0.79860647160049
7.1175797245964	0.80038125760444
7.1057705143399	0.80215356618417
7.0940004259347	0.80392317372787
7.0822692652965	0.80568985446020
7.0705768396226	0.80745338047289
7.0589229573817	0.80921352175695
7.0473074283028	0.81097004623663
7.0357300633654	0.81272271980500
7.0241906747891	0.81447130636123
7.0126890760234	0.81621556784957
7.0012250817375	0.81795526430010
6.9897985078107	0.81969015387114
6.9784091713222	0.82141999289351
6.9670568905415	0.82314453591641
6.9557414849188	0.82486353575519
6.9444627750753	0.82657674354082
6.9332205827937	0.82828390877119
6.9220147310090	0.82998477936414
6.9108450437990	0.83167910171228
6.8997113463751	0.83336662073970
6.8886134650735	0.83504707996029
6.8775512273457	0.83672022153804
6.8665244617499	0.83838578634895
6.8555329979419	0.84004351404485
6.8445766666667	0.84169314311892
6.8336552997493	0.84333441097301
6.8227687300865	0.84496705398668
6.8119167916383	0.84659080758799
6.8010993194192	0.84820540632605
6.7903161494904	0.84981058394524
6.7795671189507	0.85140607346114
6.7688520659291	0.85299160723813
6.7581708295762	0.85456691706862
6.7475232500563	0.85613173425398
6.7369091685393	0.85768578968695
6.7263284271932	0.85922881393574
6.7157808691756	0.86076053732958
6.7052663386267	0.86228069004585
6.6947846806610	0.86378900219864
6.6843357413601	0.86528520392875
6.6739193677649	0.86676902549511
6.6635354078684	0.86824019736755
6.6531837106081	0.86969845032086
6.6428641258586	0.87114351553015
6.6325765044248	0.87257512466744
6.6223206980340	0.87399300999937
6.6120965593295	0.87539690448606
6.6019039418630	0.87678654188108
6.5917427000879	0.87816165683232
6.5816126893524	0.87952198498396
6.5715137658922	0.88086726307918
6.5614457868243	0.88219722906382
6.5514086101399	0.88351162219073
6.5414020946978	0.88481018312486
6.5314261002179	0.88609265404900
6.5214804872743	0.88735877877001
6.5115651172893	0.88860830282562
6.5016798525266	0.88984097359161
6.4918245560849	0.89105654038935
6.4819990918919	0.89225475459361
6.4722033246978	0.89343536974056
6.4624371200690	0.89459814163584
6.4527003443823	0.89574282846277
6.4429928648184	0.89686919089039
6.4333145493562	0.89797699218146
6.4236652667667	0.89906599830017
6.4140448866068	0.90013597801965
6.4044532792138	0.90118670302896
6.3948903156997	0.90221794803974
6.3853558679446	0.90322949089223
6.3758498085921	0.90422111266065
6.3663720110427	0.90519259775784
6.3569223494487	0.90614373403913
6.3475006987084	0.90707431290522
6.3381069344609	0.90798412940410
6.3287409330800	0.90887298233191
6.3194025716695	0.90974067433255
6.3100917280572	0.91058701199608
6.3008082807902	0.91141180595575
6.2915521091291	0.91221487098354
6.2823230930427	0.91299602608426
6.2731211132036	0.91375509458795
6.2639460509820	0.91449190424060
6.2547977884415	0.91520628729311
6.2456762083333	0.91589808058832
6.2365811940919	0.91656712564616
6.2275126298297	0.91721326874666
6.2184704003319	0.91783636101095
6.2094543910522	0.91843625848000
6.2004644881075	0.91901282219108
6.1915005782734	0.91956591825193
6.1825625489792	0.92009541791243
6.1736502883031	0.92060119763385
6.1647636849681	0.92108313915550
6.1559026283368	0.92154112955875
6.1470670084068	0.92197506132838
6.1382567158067	0.92238483241115
6.1294716417910	0.92277034627156
6.1207116782360	0.92313151194476
6.1119767176351	0.92346824408652
6.1032666530945	0.92378046302022
6.0945813783289	0.92406809478081
6.0859207876573	0.92433107115572
6.0772847759984	0.92456932972264
6.0686732388664	0.92478281388415
6.0600860723671	0.92497147289917
6.0515231731934	0.92513526191118
6.0429844386212	0.92527414197321
6.0344697665056	0.92538808006949
6.0259790552764	0.92547704913393
6.0175122039342	0.92554102806510
6.0090691120465	0.92558000173807
6.0006496797438	0.92559396101274
5.9922538077154	0.92558290273890
5.9838813972056	0.92554682975796
5.9755323500100	0.92548575090119
5.9672065684713	0.92539968098475
5.9589039554760	0.92528864080125
5.9506244144502	0.92515265710803
5.9423678493558	0.92499176261207
5.9341341646873	0.92480599595163
5.9259232654675	0.92459540167451
5.9177350572444	0.92436003021312
5.9095694460871	0.92409993785623
5.9014263385827	0.92381518671758
5.8933056418321	0.92350584470122
5.8852072634472	0.92317198546372
5.8771311115468	0.92281368837334
5.8690770947533	0.92243103846603
5.8610451221896	0.92202412639845
5.8530351034752	0.92159304839805
5.8450469487229	0.92113790621015
5.8370805685358	0.92065880704222
5.8291358740035	0.92015586350533
5.8212127766990	0.91962919355279
5.8133111886756	0.91907892041621
5.8054310224632	0.91850517253879
5.7975721910656	0.91790808350622
5.7897346079567	0.91728779197491
5.7819181870781	0.91664444159797
5.7741228428351	0.91597818094869
5.7663484900942	0.91528916344190
5.7585950441798	0.91457754725298
5.7508624208709	0.91384349523488
5.7431505363985	0.91308717483305
5.7354593074421	0.91230875799842
5.7277886511272	0.91150842109849
5.7201384850219	0.91068634482670
5.7125087271341	0.90984271411002
5.7048992959087	0.90897771801494
5.6973101102242	0.90809154965198
5.6897410893908	0.90718440607873
5.6821921531463	0.90625648820147
5.6746632216544	0.90530800067565
5.6671542155009	0.90433915180508
5.6596650556919	0.90335015344010
5.6521956636501	0.90234122087474
5.6447459612126	0.90131257274290
5.6373158706281	0.90026443091385
5.6299053145540	0.89919702038684
5.6225142160540	0.89811056918518
5.6151424985952	0.89700530824970
5.6077900860456	0.89588147133176
5.6004569026714	0.89473929488591
5.5931428731343	0.89357901796215
5.5858479224893	0.89240088209813
5.5785719761816	0.89120513121104
5.5713149600446	0.88999201148962
5.5640768002970	0.88876177128611
5.5568574235403	0.88751466100829
5.5496567567568	0.88625093301181
5.5424747273063	0.88497084149271
5.5353112629247	0.88367464238032
5.5281662917204	0.88236259323056
5.5210397421731	0.88103495311974
5.5139315431304	0.87969198253895
5.5068416238060	0.87833394328904
5.4997699137773	0.87696109837632
5.4927163429828	0.87557371190904
5.4856808417200	0.87417204899468
5.4786633406433	0.87275637563812
5.4716637707611	0.87132695864082
5.4646820634342	0.86988406550093
5.4577181503732	0.86842796431453
5.4507719636364	0.86695892367793
5.4438434356274	0.86547721259121
5.4369324990932	0.86398310036291
5.4300390871219	0.86247685651605
5.4231631331404	0.86095875069541
5.4163045709124	0.85942905257618
5.4094633345363	0.85788803177405
5.4026393584430	0.85633595775666
5.3958325773938	0.85477309975659
5.3890429264785	0.85319972668581
5.3822703411131	0.85161610705169
5.3755147570378	0.85002250887460
5.3687761103152	0.84841919960706
5.3620543373278	0.84680644605453
5.3553493747767	0.84518451429789
5.3486611596789	0.84355366961754
5.3419896293656	0.84191417641918
5.3353347214807	0.84026629816139
5.3286963739780	0.83861029728479
5.3220745251198	0.83694643514307
5.3154691134752	0.83527497193570
5.3088800779175	0.83359616664240
5.3023073576229	0.83191027695942
5.2957508920685	0.83021755923758
5.2892106210303	0.82851826842204
5.2826864845815	0.82681265799392
5.2761784230905	0.82510097991371
5.2696863772192	0.82338348456638
5.2632102879213	0.82166042070837
5.2567500964405	0.81993203541631
5.2503057443082	0.81819857403752
5.2438771733427	0.81646028014232
5.2374643256464	0.81471739547802
5.2310671436050	0.81297015992475
5.2246855698850	0.81121881145299
5.2183195474326	0.80946358608281
5.2119690194715	0.80770471784492
5.2056339295016	0.80594243874328
5.1993142212973	0.80417697871957
5.1930098389052	0.80240856561919
5.1867207266436	0.80063742515901
5.1804468290997	0.79886378089669
5.1741880911288	0.79708785420172
5.1679444578521	0.79530986422794
5.1617158746556	0.79353002788773
5.1555022871883	0.79174855982774
5.1493036413604	0.78996567240612
5.1431198833419	0.78818157567134
5.1369509595613	0.78639647734241
5.1307968167037	0.78461058279065
5.1246574017094	0.78282409502285
5.1185326617722	0.78103721466588
5.1124225443383	0.77925013995268
5.1063269971044	0.77746306670961
5.1002459680163	0.77567618834517
5.0941794052676	0.77388969584000
5.0881272572980	0.77210377773818
5.0820894727920	0.77031862013984
5.0760660006773	0.76853440669489
5.0700567901235	0.76675131859809
5.0640617905405	0.76496953458520
5.0580809515775	0.76318923093033
5.0521142231210	0.76141058144440
5.0461615552937	0.75963375747468
5.0402228984533	0.75785892790543
5.0342982031906	0.75608625915958
5.0283874203287	0.75431591520133
5.0224905009214	0.75254805753991
5.0166073962517	0.75078284523411
5.0107380578305	0.74902043489784
5.0048824373957	0.74726098070660
4.9990404869101	0.74550463440479
4.9932121585610	0.74375154531381
4.9873974047579	0.74200186034113
4.9815961781323	0.74025572399000
4.9758084315353	0.73851327836998
4.9700341180371	0.73677466320827
4.9642731909256	0.73504001586165
4.9585256037049	0.73330947132917
4.9527913100942	0.73158316226548
4.9470702640264	0.72986121899482
4.9413624196473	0.72814376952559
4.9356677313138	0.72643093956552
4.9299861535932	0.72472285253742
4.9243176412615	0.72301962959543
4.9186621493027	0.72132138964182
4.9130196329072	0.71962824934427
4.9073900474709	0.71794032315361
4.9017733485939	0.71625772332203
4.8961694920790	0.71458055992169
4.8905784339315	0.71290894086376
4.8850001303569	0.71124297191779
4.8794345377604	0.70958275673154
4.8738816127459	0.70792839685102
4.8683413121143	0.70627999174098
4.8628135928629	0.70463763880560
4.8572984121841	0.70300143340953
4.8517957274640	0.70137146889917
4.8463054962819	0.69974783662419
4.8408276764088	0.69813062595927
4.8353622258065	0.69651992432610
