#Parameters = {thARC=0.2; nARC=1; thsub=1; p=1; nSub=2}
#"Wavelength / um"	"T (218) [Real Part]"
#---------------------------------------
14.989622900000	0.88888889097053
14.937342202292	0.88895688538178
14.885424925521	0.88902379317205
14.833867293419	0.88908962224281
14.782665581854	0.88915438048779
14.731816117936	0.88921807579272
14.681315279138	0.88928071603486
14.631159492435	0.88934230908273
14.581345233463	0.88940286279566
14.531869025691	0.88946238502350
14.482727439614	0.88952088360623
14.433917091960	0.88957836637358
14.385434644914	0.88963484114475
14.337276805356	0.88969031572798
14.289440324118	0.88974479792024
14.241921995249	0.88979829550692
14.194718655303	0.88985081626140
14.147827182633	0.88990236794481
14.101244496707	0.88995295830561
14.054967557431	0.89000259507933
14.008993364486	0.89005128598817
13.963318956684	0.89009903874072
13.917941411328	0.89014586103161
13.872857843591	0.89019176054121
13.828065405904	0.89023674493527
13.783561287356	0.89028082186467
13.739342713107	0.89032399896502
13.695406943810	0.89036628385643
13.651751275046	0.89040768414312
13.608373036768	0.89044820741320
13.565269592760	0.89048786123831
13.522438340099	0.89052665317332
13.479876708633	0.89056459075606
13.437582160466	0.89060168150700
13.395552189455	0.89063793292899
13.353784320713	0.89067335250693
13.312276110124	0.89070794770751
13.271025143869	0.89074172597891
13.230029037952	0.89077469475054
13.189285437747	0.89080686143275
13.148792017544	0.89083823341656
13.108546480105	0.89086881807336
13.068546556234	0.89089862275470
13.028790004346	0.89092765479196
12.989274610052	0.89095592149611
12.949998185745	0.89098343015747
12.910958570198	0.89101018804544
12.872153628167	0.89103620240822
12.833581250000	0.89106148047257
12.795239351259	0.89108602944361
12.757125872340	0.89110985650448
12.719238778108	0.89113296881618
12.681576057530	0.89115537351729
12.644135723323	0.89117707772372
12.606915811606	0.89119808852851
12.569914381551	0.89121841300158
12.533129515050	0.89123805818949
12.496559316382	0.89125703111523
12.460201911887	0.89127533877800
12.424055449648	0.89129298815295
12.388118099174	0.89130998619101
12.352388051092	0.89132633981866
12.316863516845	0.89134205593770
12.281542728390	0.89135714142506
12.246423937908	0.89137160313256
12.211505417515	0.89138544788678
12.176785458976	0.89139868248876
12.142262373431	0.89141131371387
12.107934491115	0.89142334831161
12.073800161095	0.89143479300537
12.039857751004	0.89144565449231
12.006105646776	0.89145593944309
11.972542252396	0.89146565450177
11.939165989646	0.89147480628555
11.905975297855	0.89148340138466
11.872968633663	0.89149144636214
11.840144470774	0.89149894775367
11.807501299724	0.89150591206742
11.775037627651	0.89151234578386
11.742751978065	0.89151825535560
11.710642890625	0.89152364720724
11.678708920919	0.89152852773519
11.646948640249	0.89153290330754
11.615360635413	0.89153678026387
11.583943508501	0.89154016491512
11.552695876686	0.89154306354345
11.521616372022	0.89154548240206
11.490703641242	0.89154742771509
11.459956345566	0.89154890567742
11.429373160503	0.89154992245461
11.398952775665	0.89155048418268
11.368693894577	0.89155059696804
11.338595234493	0.89155026688734
11.308655526217	0.89154949998732
11.278873513920	0.89154830228470
11.249247954972	0.89154667976609
11.219777619760	0.89154463838779
11.190461291527	0.89154218407578
11.161297766195	0.89153932272548
11.132285852209	0.89153606020176
11.103424370370	0.89153240233873
11.074712153676	0.89152835493971
11.046148047163	0.89152392377705
11.017730907755	0.89151911459210
10.989459604106	0.89151393309506
10.961333016453	0.89150838496490
10.933350036470	0.89150247584927
10.905509567115	0.89149621136439
10.877810522496	0.89148959709497
10.850251827723	0.89148263859413
10.822832418773	0.89147534138331
10.795551242348	0.89146771095217
10.768407255747	0.89145975275852
10.741399426729	0.89145147222827
10.714526733381	0.89144287475530
10.687788163993	0.89143396570142
10.661182716927	0.89142475039631
10.634709400497	0.89141523413741
10.608367232838	0.89140542218990
10.582155241793	0.89139531978661
10.556072464789	0.89138493212793
10.530117948718	0.89137426438184
10.504290749825	0.89136332168374
10.478589933590	0.89135210913647
10.453014574616	0.89134063181025
10.427563756522	0.89132889474260
10.402236571825	0.89131690293831
10.377032121841	0.89130466136938
10.351949516575	0.89129217497501
10.326987874612	0.89127944866153
10.302146323024	0.89126648730234
10.277423997257	0.89125329573793
10.252820041040	0.89123987877580
10.228333606278	0.89122624119044
10.203963852961	0.89121238772330
10.179709949066	0.89119832308275
10.155571070461	0.89118405194407
10.131546400811	0.89116957894942
10.107635131490	0.89115490870782
10.083836461487	0.89114004579511
10.060149597315	0.89112499475396
10.036573752929	0.89110976009382
10.013108149633	0.89109434629094
9.9897520159947	0.89107875778835
9.9665045877660	0.89106299899581
9.9433651077944	0.89104707428987
9.9203328259431	0.89103098801380
9.8974069990096	0.89101474447762
9.8745868906456	0.89099834795808
9.8518717712783	0.89098180269869
9.8292609180328	0.89096511290967
9.8067536146549	0.89094828276801
9.7843491514360	0.89093131641741
9.7620468251384	0.89091421796837
9.7398459389214	0.89089699149810
9.7177458022690	0.89087964105062
9.6957457309185	0.89086217063673
9.6738450467893	0.89084458423401
9.6520430779137	0.89082688578686
9.6303391583681	0.89080907920652
9.6087326282051	0.89079116837107
9.5872228333866	0.89077315712548
9.5658091257179	0.89075504928159
9.5444908627826	0.89073684861817
9.5232674078780	0.89071855888095
9.5021381299525	0.89070018378261
9.4811024035421	0.89068172700285
9.4601596087094	0.89066319218839
9.4393091309824	0.89064458295303
9.4185503612944	0.89062590287767
9.3978826959248	0.89060715551035
9.3773055364404	0.89058834436628
9.3568182896380	0.89056947292788
9.3364203674868	0.89055054464486
9.3161111870727	0.89053156293418
9.2958901705426	0.89051253118019
9.2757567450495	0.89049345273461
9.2557103426984	0.89047433091660
9.2357504004929	0.89045516901279
9.2158763602828	0.89043597027738
9.1960876687117	0.89041673793214
9.1763837771656	0.89039747516647
9.1567641417227	0.89037818513750
9.1372282231027	0.89035887097008
9.1177754866180	0.89033953575690
9.0984054021244	0.89032018255849
9.0791174439733	0.89030081440334
9.0599110909640	0.89028143428792
9.0407858262967	0.89026204517676
9.0217411375263	0.89024265000252
9.0027765165165	0.89022325166602
8.9838914593947	0.89020385303636
8.9650854665072	0.89018445695097
8.9463580423754	0.89016506621566
8.9277086956522	0.89014568360472
8.9091369390788	0.89012631186095
8.8906422894425	0.89010695369581
8.8722242675348	0.89008761178941
8.8538823981099	0.89006828879064
8.8356162098438	0.89004898731724
8.8174252352941	0.89002970995588
8.7993090108600	0.89001045926221
8.7812670767428	0.88999123776098
8.7632989769073	0.88997204794612
8.7454042590432	0.88995289228079
8.7275824745269	0.88993377319751
8.7098331783847	0.88991469309820
8.6921559292549	0.88989565435432
8.6745502893519	0.88987665930692
8.6570158244297	0.88985771026674
8.6395521037464	0.88983880951430
8.6221587000288	0.88981995930000
8.6048351894374	0.88980116184421
8.5875811515325	0.88978241933735
8.5703961692396	0.88976373394003
8.5532798288160	0.88974510778307
8.5362317198178	0.88972654296768
8.5192514350668	0.88970804156550
8.5023385706183	0.88968960561872
8.4854927257288	0.88967123714020
8.4687135028249	0.88965293811354
8.4520005074711	0.88963471049320
8.4353533483399	0.88961655620459
8.4187716371806	0.88959847714420
8.4022549887892	0.88958047517968
8.3858030209790	0.88956255214995
8.3694153545505	0.88954470986533
8.3530916132627	0.88952695010763
8.3368314238042	0.88950927463025
8.3206344157646	0.88949168515832
8.3045002216066	0.88947418338878
8.2884284766381	0.88945677099050
8.2724188189845	0.88943944960442
8.2564708895621	0.88942222084363
8.2405843320506	0.88940508629350
8.2247587928669	0.88938804751178
8.2089939211391	0.88937110602875
8.1932893686800	0.88935426334731
8.1776447899618	0.88933752094310
8.1620598420909	0.88932088026462
8.1465341847826	0.88930434273335
8.1310674803363	0.88928790974390
8.1156593936113	0.88927158266408
8.1003095920022	0.88925536283504
8.0850177454153	0.88923925157143
8.0697835262450	0.88922325016145
8.0546066093498	0.88920735986705
8.0394866720300	0.88919158192402
8.0244233940043	0.88917591754210
8.0094164573871	0.88916036790513
7.9944655466667	0.88914493417118
7.9795703486825	0.88912961747264
7.9647305526036	0.88911441891642
7.9499458499072	0.88909933958399
7.9352159343568	0.88908438053159
7.9205405019815	0.88906954279030
7.9059192510549	0.88905482736621
7.8913518820742	0.88904023524054
7.8768380977404	0.88902576736976
7.8623776029373	0.88901142468572
7.8479701047120	0.88899720809584
7.8336153122550	0.88898311848314
7.8193129368805	0.88896915670649
7.8050626920073	0.88895532360065
7.7908642931393	0.88894161997646
7.7767174578470	0.88892804662096
7.7626219057483	0.88891460429753
7.7485773584906	0.88890129374601
7.7345835397317	0.88888811568287
7.7206401751223	0.88887507080133
7.7067469922879	0.88886215977149
7.6929037208109	0.88884938324048
7.6791100922131	0.88883674183259
7.6653658399386	0.88882423614945
7.6516706993364	0.88881186677010
7.6380244076433	0.88879963425120
7.6244267039674	0.88878753912713
7.6108773292714	0.88877558191013
7.5973760263558	0.88876376309048
7.5839225398432	0.88875208313662
7.5705166161616	0.88874054249526
7.5571580035291	0.88872914159160
7.5438464519376	0.88871788082939
7.5305817131374	0.88870676059114
7.5173635406219	0.88869578123824
7.5041916896120	0.88868494311108
7.4910659170415	0.88867424652925
7.4779859815415	0.88866369179164
7.4649516434263	0.88865327917660
7.4519626646781	0.88864300894211
7.4390188089330	0.88863288132587
7.4261198414664	0.88862289654552
7.4132655291790	0.88861305479872
7.4004556405826	0.88860335626336
7.3876899457861	0.88859380109765
7.3749682164822	0.88858438944031
7.3622902259332	0.88857512141070
7.3496557489581	0.88856599710897
7.3370645619187	0.88855701661621
7.3245164427071	0.88854817999461
7.3120111707317	0.88853948728761
7.2995485269053	0.88853093852001
7.2871282936315	0.88852253369819
7.2747502547925	0.88851427281020
7.2624141957364	0.88850615582594
7.2501199032648	0.88849818269729
7.2378671656205	0.88849035335831
7.2256557724753	0.88848266772531
7.2134855149182	0.88847512569709
7.2013561854432	0.88846772715503
7.1892675779376	0.88846047196325
7.1772194876706	0.88845335996880
7.1652117112811	0.88844639100178
7.1532440467669	0.88843956487548
7.1413162934731	0.88843288138656
7.1294282520809	0.88842634031521
7.1175797245964	0.88841994142526
7.1057705143399	0.88841368446437
7.0940004259347	0.88840756916419
7.0822692652965	0.88840159524046
7.0705768396226	0.88839576239322
7.0589229573817	0.88839007030694
7.0473074283028	0.88838451865068
7.0357300633654	0.88837910707822
7.0241906747891	0.88837383522825
7.0126890760234	0.88836870272450
7.0012250817375	0.88836370917589
6.9897985078107	0.88835885417670
6.9784091713222	0.88835413730673
6.9670568905415	0.88834955813142
6.9557414849188	0.88834511620202
6.9444627750753	0.88834081105578
6.9332205827937	0.88833664221604
6.9220147310090	0.88833260919243
6.9108450437990	0.88832871148100
6.8997113463751	0.88832494856439
6.8886134650735	0.88832131991198
6.8775512273457	0.88831782498004
6.8665244617499	0.88831446321188
6.8555329979419	0.88831123403801
6.8445766666667	0.88830813687629
6.8336552997493	0.88830517113210
6.8227687300865	0.88830233619845
6.8119167916383	0.88829963145618
6.8010993194192	0.88829705627412
6.7903161494904	0.88829461000918
6.7795671189507	0.88829229200656
6.7688520659291	0.88829010159989
6.7581708295762	0.88828803811137
6.7475232500563	0.88828610085195
6.7369091685393	0.88828428912145
6.7263284271932	0.88828260220872
6.7157808691756	0.88828103939183
6.7052663386267	0.88827959993816
6.6947846806610	0.88827828310462
6.6843357413601	0.88827708813775
6.6739193677649	0.88827601427388
6.6635354078684	0.88827506073930
6.6531837106081	0.88827422675043
6.6428641258586	0.88827351151391
6.6325765044248	0.88827291422680
6.6223206980340	0.88827243407673
6.6120965593295	0.88827207024203
6.6019039418630	0.88827182189189
6.5917427000879	0.88827168818652
6.5816126893524	0.88827166827727
6.5715137658922	0.88827176130683
6.5614457868243	0.88827196640935
6.5514086101399	0.88827228271058
6.5414020946978	0.88827270932802
6.5314261002179	0.88827324537113
6.5214804872743	0.88827388994137
6.5115651172893	0.88827464213247
6.5016798525266	0.88827550103047
6.4918245560849	0.88827646571394
6.4819990918919	0.88827753525410
6.4722033246978	0.88827870871498
6.4624371200690	0.88827998515357
6.4527003443823	0.88828136361992
6.4429928648184	0.88828284315737
6.4333145493562	0.88828442280262
6.4236652667667	0.88828610158594
6.4140448866068	0.88828787853125
6.4044532792138	0.88828975265632
6.3948903156997	0.88829172297291
6.3853558679446	0.88829378848686
6.3758498085921	0.88829594819833
6.3663720110427	0.88829820110184
6.3569223494487	0.88830054618651
6.3475006987084	0.88830298243611
6.3381069344609	0.88830550882931
6.3287409330800	0.88830812433972
6.3194025716695	0.88831082793609
6.3100917280572	0.88831361858246
6.3008082807902	0.88831649523825
6.2915521091291	0.88831945685847
6.2823230930427	0.88832250239381
6.2731211132036	0.88832563079077
6.2639460509820	0.88832884099188
6.2547977884415	0.88833213193574
6.2456762083333	0.88833550255724
6.2365811940919	0.88833895178764
6.2275126298297	0.88834247855475
6.2184704003319	0.88834608178306
6.2094543910522	0.88834976039385
6.2004644881075	0.88835351330536
6.1915005782734	0.88835733943291
6.1825625489792	0.88836123768906
6.1736502883031	0.88836520698370
6.1647636849681	0.88836924622424
6.1559026283368	0.88837335431571
6.1470670084068	0.88837753016088
6.1382567158067	0.88838177266046
6.1294716417910	0.88838608071316
6.1207116782360	0.88839045321587
6.1119767176351	0.88839488906378
6.1032666530945	0.88839938715048
6.0945813783289	0.88840394636817
6.0859207876573	0.88840856560770
6.0772847759984	0.88841324375877
6.0686732388664	0.88841797971002
6.0600860723671	0.88842277234917
6.0515231731934	0.88842762056317
6.0429844386212	0.88843252323831
6.0344697665056	0.88843747926031
6.0259790552764	0.88844248751455
6.0175122039342	0.88844754688607
6.0090691120465	0.88845265625981
6.0006496797438	0.88845781452065
5.9922538077154	0.88846302055359
5.9838813972056	0.88846827324385
5.9755323500100	0.88847357147700
5.9672065684713	0.88847891413909
5.9589039554760	0.88848430011673
5.9506244144502	0.88848972829731
5.9423678493558	0.88849519756899
5.9341341646873	0.88850070682095
5.9259232654675	0.88850625494342
5.9177350572444	0.88851184082783
5.9095694460871	0.88851746336693
5.9014263385827	0.88852312145493
5.8933056418321	0.88852881398757
5.8852072634472	0.88853453986228
5.8771311115468	0.88854029797827
5.8690770947533	0.88854608723665
5.8610451221896	0.88855190654058
5.8530351034752	0.88855775479532
5.8450469487229	0.88856363090841
5.8370805685358	0.88856953378973
5.8291358740035	0.88857546235165
5.8212127766990	0.88858141550913
5.8133111886756	0.88858739217981
5.8054310224632	0.88859339128416
5.7975721910656	0.88859941174557
5.7897346079567	0.88860545249043
5.7819181870781	0.88861151244831
5.7741228428351	0.88861759055199
5.7663484900942	0.88862368573762
5.7585950441798	0.88862979694480
5.7508624208709	0.88863592311671
5.7431505363985	0.88864206320016
5.7354593074421	0.88864821614579
5.7277886511272	0.88865438090806
5.7201384850219	0.88866055644545
5.7125087271341	0.88866674172051
5.7048992959087	0.88867293569995
5.6973101102242	0.88867913735479
5.6897410893908	0.88868534566043
5.6821921531463	0.88869155959673
5.6746632216544	0.88869777814816
5.6671542155009	0.88870400030384
5.6596650556919	0.88871022505767
5.6521956636501	0.88871645140843
5.6447459612126	0.88872267835985
5.6373158706281	0.88872890492074
5.6299053145540	0.88873513010503
5.6225142160540	0.88874135293191
5.6151424985952	0.88874757242593
5.6077900860456	0.88875378761701
5.6004569026714	0.88875999754066
5.5931428731343	0.88876620123793
5.5858479224893	0.88877239775560
5.5785719761816	0.88877858614624
5.5713149600446	0.88878476546826
5.5640768002970	0.88879093478606
5.5568574235403	0.88879709317006
5.5496567567568	0.88880323969681
5.5424747273063	0.88880937344907
5.5353112629247	0.88881549351589
5.5281662917204	0.88882159899271
5.5210397421731	0.88882768898140
5.5139315431304	0.88883376259039
5.5068416238060	0.88883981893471
5.4997699137773	0.88884585713607
5.4927163429828	0.88885187632299
5.4856808417200	0.88885787563081
5.4786633406433	0.88886385420179
5.4716637707611	0.88886981118520
5.4646820634342	0.88887574573738
5.4577181503732	0.88888165702181
5.4507719636364	0.88888754420921
5.4438434356274	0.88889340647755
5.4369324990932	0.88889924301220
5.4300390871219	0.88890505300593
5.4231631331404	0.88891083565903
5.4163045709124	0.88891659017935
5.4094633345363	0.88892231578236
5.4026393584430	0.88892801169124
5.3958325773938	0.88893367713694
5.3890429264785	0.88893931135822
5.3822703411131	0.88894491360176
5.3755147570378	0.88895048312218
5.3687761103152	0.88895601918209
5.3620543373278	0.88896152105222
5.3553493747767	0.88896698801141
5.3486611596789	0.88897241934670
5.3419896293656	0.88897781435338
5.3353347214807	0.88898317233505
5.3286963739780	0.88898849260367
5.3220745251198	0.88899377447964
5.3154691134752	0.88899901729180
5.3088800779175	0.88900422037753
5.3023073576229	0.88900938308281
5.2957508920685	0.88901450476223
5.2892106210303	0.88901958477904
5.2826864845815	0.88902462250526
5.2761784230905	0.88902961732165
5.2696863772192	0.88903456861783
5.2632102879213	0.88903947579225
5.2567500964405	0.88904433825230
5.2503057443082	0.88904915541433
5.2438771733427	0.88905392670369
5.2374643256464	0.88905865155478
5.2310671436050	0.88906332941107
5.2246855698850	0.88906795972517
5.2183195474326	0.88907254195886
5.2119690194715	0.88907707558312
5.2056339295016	0.88908156007818
5.1993142212973	0.88908599493353
5.1930098389052	0.88909037964800
5.1867207266436	0.88909471372976
5.1804468290997	0.88909899669635
5.1741880911288	0.88910322807473
5.1679444578521	0.88910740740134
5.1617158746556	0.88911153422204
5.1555022871883	0.88911560809225
5.1493036413604	0.88911962857689
5.1431198833419	0.88912359525046
5.1369509595613	0.88912750769704
5.1307968167037	0.88913136551034
5.1246574017094	0.88913516829370
5.1185326617722	0.88913891566012
5.1124225443383	0.88914260723229
5.1063269971044	0.88914624264261
5.1002459680163	0.88914982153320
5.0941794052676	0.88915334355594
5.0881272572980	0.88915680837247
5.0820894727920	0.88916021565420
5.0760660006773	0.88916356508236
5.0700567901235	0.88916685634798
5.0640617905405	0.88917008915194
5.0580809515775	0.88917326320495
5.0521142231210	0.88917637822756
5.0461615552937	0.88917943395022
5.0402228984533	0.88918243011323
5.0342982031906	0.88918536646679
5.0283874203287	0.88918824277100
5.0224905009214	0.88919105879585
5.0166073962517	0.88919381432124
5.0107380578305	0.88919650913700
5.0048824373957	0.88919914304286
4.9990404869101	0.88920171584849
4.9932121585610	0.88920422737346
4.9873974047579	0.88920667744728
4.9815961781323	0.88920906590940
4.9758084315353	0.88921139260917
4.9700341180371	0.88921365740587
4.9642731909256	0.88921586016871
4.9585256037049	0.88921800077681
4.9527913100942	0.88922007911919
4.9470702640264	0.88922209509480
4.9413624196473	0.88922404861248
4.9356677313138	0.88922593959094
4.9299861535932	0.88922776795880
4.9243176412615	0.88922953365454
4.9186621493027	0.88923123662651
4.9130196329072	0.88923287683289
4.9073900474709	0.88923445424171
4.9017733485939	0.88923596883083
4.8961694920790	0.88923742058790
4.8905784339315	0.88923880951037
4.8850001303569	0.88924013560546
4.8794345377604	0.88924139889016
4.8738816127459	0.88924259939117
4.8683413121143	0.88924373714495
4.8628135928629	0.88924481219760
4.8572984121841	0.88924582460495
4.8517957274640	0.88924677443244
4.8463054962819	0.88924766175516
4.8408276764088	0.88924848665780
4.8353622258065	0.88924924923460
