#Parameters = {thARC=0.6; nARC=1; thsub=1; p=1; nSub=2}
#"Wavelength / um"	"T (220) [Real Part]"
#---------------------------------------
14.989622900000	0.88888900968668
14.937342202292	0.88888908796860
14.885424925521	0.88888916392805
14.833867293419	0.88888923759267
14.782665581854	0.88888930898999
14.731816117936	0.88888937814744
14.681315279138	0.88888944509229
14.631159492435	0.88888950985173
14.581345233463	0.88888957245278
14.531869025691	0.88888963292237
14.482727439614	0.88888969128730
14.433917091960	0.88888974757426
14.385434644914	0.88888980180977
14.337276805356	0.88888985402028
14.289440324118	0.88888990423207
14.241921995249	0.88888995247131
14.194718655303	0.88888999876406
14.147827182633	0.88889004313623
14.101244496707	0.88889008561360
14.054967557431	0.88889012622184
14.008993364486	0.88889016498647
13.963318956684	0.88889020193289
13.917941411328	0.88889023708638
13.872857843591	0.88889027047208
13.828065405904	0.88889030211498
13.783561287356	0.88889033203997
13.739342713107	0.88889036027179
13.695406943810	0.88889038683506
13.651751275046	0.88889041175424
13.608373036768	0.88889043505369
13.565269592760	0.88889045675762
13.522438340099	0.88889047689010
13.479876708633	0.88889049547507
13.437582160466	0.88889051253634
13.395552189455	0.88889052809758
13.353784320713	0.88889054218232
13.312276110124	0.88889055481397
13.271025143869	0.88889056601579
13.230029037952	0.88889057581090
13.189285437747	0.88889058422229
13.148792017544	0.88889059127280
13.108546480105	0.88889059698515
13.068546556234	0.88889060138192
13.028790004346	0.88889060448554
12.989274610052	0.88889060631830
12.949998185745	0.88889060690236
12.910958570198	0.88889060625974
12.872153628167	0.88889060441231
12.833581250000	0.88889060138182
12.795239351259	0.88889059718986
12.757125872340	0.88889059185788
12.719238778108	0.88889058540720
12.681576057530	0.88889057785900
12.644135723323	0.88889056923431
12.606915811606	0.88889055955402
12.569914381551	0.88889054883889
12.533129515050	0.88889053710951
12.496559316382	0.88889052438636
12.460201911887	0.88889051068976
12.424055449648	0.88889049603989
12.388118099174	0.88889048045679
12.352388051092	0.88889046396036
12.316863516845	0.88889044657035
12.281542728390	0.88889042830637
12.246423937908	0.88889040918789
12.211505417515	0.88889038923424
12.176785458976	0.88889036846458
12.142262373431	0.88889034689797
12.107934491115	0.88889032455330
12.073800161095	0.88889030144930
12.039857751004	0.88889027760461
12.006105646776	0.88889025303766
11.972542252396	0.88889022776679
11.939165989646	0.88889020181017
11.905975297855	0.88889017518583
11.872968633663	0.88889014791165
11.840144470774	0.88889012000538
11.807501299724	0.88889009148462
11.775037627651	0.88889006236683
11.742751978065	0.88889003266930
11.710642890625	0.88889000240922
11.678708920919	0.88888997160361
11.646948640249	0.88888994026933
11.615360635413	0.88888990842313
11.583943508501	0.88888987608160
11.552695876686	0.88888984326119
11.521616372022	0.88888980997819
11.490703641242	0.88888977624877
11.459956345566	0.88888974208894
11.429373160503	0.88888970751457
11.398952775665	0.88888967254139
11.368693894577	0.88888963718499
11.338595234493	0.88888960146080
11.308655526217	0.88888956538413
11.278873513920	0.88888952897013
11.249247954972	0.88888949223380
11.219777619760	0.88888945519002
11.190461291527	0.88888941785352
11.161297766195	0.88888938023887
11.132285852209	0.88888934236051
11.103424370370	0.88888930423275
11.074712153676	0.88888926586973
11.046148047163	0.88888922728548
11.017730907755	0.88888918849385
10.989459604106	0.88888914950859
10.961333016453	0.88888911034327
10.933350036470	0.88888907101135
10.905509567115	0.88888903152613
10.877810522496	0.88888899190077
10.850251827723	0.88888895214830
10.822832418773	0.88888891228159
10.795551242348	0.88888887231340
10.768407255747	0.88888883225632
10.741399426729	0.88888879212281
10.714526733381	0.88888875192521
10.687788163993	0.88888871167568
10.661182716927	0.88888867138628
10.634709400497	0.88888863106891
10.608367232838	0.88888859073534
10.582155241793	0.88888855039719
10.556072464789	0.88888851006595
10.530117948718	0.88888846975298
10.504290749825	0.88888842946950
10.478589933590	0.88888838922657
10.453014574616	0.88888834903514
10.427563756522	0.88888830890602
10.402236571825	0.88888826884987
10.377032121841	0.88888822887723
10.351949516575	0.88888818899849
10.326987874612	0.88888814922391
10.302146323024	0.88888810956362
10.277423997257	0.88888807002761
10.252820041040	0.88888803062574
10.228333606278	0.88888799136774
10.203963852961	0.88888795226318
10.179709949066	0.88888791332154
10.155571070461	0.88888787455214
10.131546400811	0.88888783596416
10.107635131490	0.88888779756667
10.083836461487	0.88888775936860
10.060149597315	0.88888772137874
10.036573752929	0.88888768360577
10.013108149633	0.88888764605821
9.9897520159947	0.88888760874448
9.9665045877660	0.88888757167285
9.9433651077944	0.88888753485147
9.9203328259431	0.88888749828836
9.8974069990096	0.88888746199142
9.8745868906456	0.88888742596839
9.8518717712783	0.88888739022693
9.8292609180328	0.88888735477454
9.8067536146549	0.88888731961860
9.7843491514360	0.88888728476637
9.7620468251384	0.88888725022498
9.7398459389214	0.88888721600144
9.7177458022690	0.88888718210263
9.6957457309185	0.88888714853530
9.6738450467893	0.88888711530610
9.6520430779137	0.88888708242152
9.6303391583681	0.88888704988797
9.6087326282051	0.88888701771171
9.5872228333866	0.88888698589887
9.5658091257179	0.88888695445549
9.5444908627826	0.88888692338747
9.5232674078780	0.88888689270060
9.5021381299525	0.88888686240052
9.4811024035421	0.88888683249279
9.4601596087094	0.88888680298284
9.4393091309824	0.88888677387597
9.4185503612944	0.88888674517738
9.3978826959248	0.88888671689213
9.3773055364404	0.88888668902518
9.3568182896380	0.88888666158138
9.3364203674868	0.88888663456545
9.3161111870727	0.88888660798201
9.2958901705426	0.88888658183554
9.2757567450495	0.88888655613044
9.2557103426984	0.88888653087097
9.2357504004929	0.88888650606129
9.2158763602828	0.88888648170546
9.1960876687117	0.88888645780739
9.1763837771656	0.88888643437093
9.1567641417227	0.88888641139978
9.1372282231027	0.88888638889755
9.1177754866180	0.88888636686773
9.0984054021244	0.88888634531371
9.0791174439733	0.88888632423877
9.0599110909640	0.88888630364609
9.0407858262967	0.88888628353873
9.0217411375263	0.88888626391965
9.0027765165165	0.88888624479170
8.9838914593947	0.88888622615764
8.9650854665072	0.88888620802011
8.9463580423754	0.88888619038166
8.9277086956522	0.88888617324472
8.9091369390788	0.88888615661163
8.8906422894425	0.88888614048463
8.8722242675348	0.88888612486585
8.8538823981099	0.88888610975734
8.8356162098438	0.88888609516101
8.8174252352941	0.88888608107872
8.7993090108600	0.88888606751220
8.7812670767428	0.88888605446308
8.7632989769073	0.88888604193292
8.7454042590432	0.88888602992315
8.7275824745269	0.88888601843513
8.7098331783847	0.88888600747012
8.6921559292549	0.88888599702928
8.6745502893519	0.88888598711367
8.6570158244297	0.88888597772427
8.6395521037464	0.88888596886195
8.6221587000288	0.88888596052752
8.6048351894374	0.88888595272167
8.5875811515325	0.88888594544501
8.5703961692396	0.88888593869806
8.5532798288160	0.88888593248125
8.5362317198178	0.88888592679491
8.5192514350668	0.88888592163931
8.5023385706183	0.88888591701460
8.4854927257288	0.88888591292088
8.4687135028249	0.88888590935814
8.4520005074711	0.88888590632627
8.4353533483399	0.88888590382512
8.4187716371806	0.88888590185442
8.4022549887892	0.88888590041383
8.3858030209790	0.88888589950293
8.3694153545505	0.88888589912121
8.3530916132627	0.88888589926809
8.3368314238042	0.88888589994291
8.3206344157646	0.88888590114491
8.3045002216066	0.88888590287327
8.2884284766381	0.88888590512710
8.2724188189845	0.88888590790540
8.2564708895621	0.88888591120714
8.2405843320506	0.88888591503117
8.2247587928669	0.88888591937630
8.2089939211391	0.88888592424123
8.1932893686800	0.88888592962462
8.1776447899618	0.88888593552503
8.1620598420909	0.88888594194097
8.1465341847826	0.88888594887086
8.1310674803363	0.88888595631307
8.1156593936113	0.88888596426588
8.1003095920022	0.88888597272751
8.0850177454153	0.88888598169610
8.0697835262450	0.88888599116975
8.0546066093498	0.88888600114646
8.0394866720300	0.88888601162417
8.0244233940043	0.88888602260079
8.0094164573871	0.88888603407411
7.9944655466667	0.88888604604189
7.9795703486825	0.88888605850183
7.9647305526036	0.88888607145154
7.9499458499072	0.88888608488860
7.9352159343568	0.88888609881049
7.9205405019815	0.88888611321467
7.9059192510549	0.88888612809852
7.8913518820742	0.88888614345935
7.8768380977404	0.88888615929444
7.8623776029373	0.88888617560098
7.8479701047120	0.88888619237613
7.8336153122550	0.88888620961698
7.8193129368805	0.88888622732057
7.8050626920073	0.88888624548387
7.7908642931393	0.88888626410382
7.7767174578470	0.88888628317729
7.7626219057483	0.88888630270110
7.7485773584906	0.88888632267202
7.7345835397317	0.88888634308677
7.7206401751223	0.88888636394202
7.7067469922879	0.88888638523439
7.6929037208109	0.88888640696044
7.6791100922131	0.88888642911669
7.6653658399386	0.88888645169963
7.6516706993364	0.88888647470567
7.6380244076433	0.88888649813119
7.6244267039674	0.88888652197254
7.6108773292714	0.88888654622599
7.5973760263558	0.88888657088780
7.5839225398432	0.88888659595417
7.5705166161616	0.88888662142125
7.5571580035291	0.88888664728518
7.5438464519376	0.88888667354202
7.5305817131374	0.88888670018781
7.5173635406219	0.88888672721855
7.5041916896120	0.88888675463020
7.4910659170415	0.88888678241867
7.4779859815415	0.88888681057986
7.4649516434263	0.88888683910961
7.4519626646781	0.88888686800372
7.4390188089330	0.88888689725798
7.4261198414664	0.88888692686811
7.4132655291790	0.88888695682984
7.4004556405826	0.88888698713883
7.3876899457861	0.88888701779073
7.3749682164822	0.88888704878114
7.3622902259332	0.88888708010564
7.3496557489581	0.88888711175977
7.3370645619187	0.88888714373907
7.3245164427071	0.88888717603901
7.3120111707317	0.88888720865505
7.2995485269053	0.88888724158264
7.2871282936315	0.88888727481718
7.2747502547925	0.88888730835405
7.2624141957364	0.88888734218860
7.2501199032648	0.88888737631616
7.2378671656205	0.88888741073205
7.2256557724753	0.88888744543155
7.2134855149182	0.88888748040991
7.2013561854432	0.88888751566237
7.1892675779376	0.88888755118416
7.1772194876706	0.88888758697048
7.1652117112811	0.88888762301649
7.1532440467669	0.88888765931736
7.1413162934731	0.88888769586822
7.1294282520809	0.88888773266421
7.1175797245964	0.88888776970042
7.1057705143399	0.88888780697194
7.0940004259347	0.88888784447386
7.0822692652965	0.88888788220121
7.0705768396226	0.88888792014906
7.0589229573817	0.88888795831242
7.0473074283028	0.88888799668633
7.0357300633654	0.88888803526577
7.0241906747891	0.88888807404574
7.0126890760234	0.88888811302123
7.0012250817375	0.88888815218721
6.9897985078107	0.88888819153863
6.9784091713222	0.88888823107046
6.9670568905415	0.88888827077763
6.9557414849188	0.88888831065509
6.9444627750753	0.88888835069775
6.9332205827937	0.88888839090055
6.9220147310090	0.88888843125840
6.9108450437990	0.88888847176622
6.8997113463751	0.88888851241891
6.8886134650735	0.88888855321137
6.8775512273457	0.88888859413850
6.8665244617499	0.88888863519521
6.8555329979419	0.88888867637639
6.8445766666667	0.88888871767693
6.8336552997493	0.88888875909173
6.8227687300865	0.88888880061568
6.8119167916383	0.88888884224367
6.8010993194192	0.88888888397060
6.7903161494904	0.88888892579137
6.7795671189507	0.88888896770087
6.7688520659291	0.88888900969401
6.7581708295762	0.88888905176569
6.7475232500563	0.88888909391082
6.7369091685393	0.88888913612432
6.7263284271932	0.88888917840111
6.7157808691756	0.88888922073611
6.7052663386267	0.88888926312426
6.6947846806610	0.88888930556049
6.6843357413601	0.88888934803975
6.6739193677649	0.88888939055699
6.6635354078684	0.88888943310719
6.6531837106081	0.88888947568531
6.6428641258586	0.88888951828634
6.6325765044248	0.88888956090528
6.6223206980340	0.88888960353712
6.6120965593295	0.88888964617689
6.6019039418630	0.88888968881961
6.5917427000879	0.88888973146032
6.5816126893524	0.88888977409409
6.5715137658922	0.88888981671598
6.5614457868243	0.88888985932107
6.5514086101399	0.88888990190447
6.5414020946978	0.88888994446129
6.5314261002179	0.88888998698665
6.5214804872743	0.88889002947571
6.5115651172893	0.88889007192363
6.5016798525266	0.88889011432559
6.4918245560849	0.88889015667679
6.4819990918919	0.88889019897245
6.4722033246978	0.88889024120781
6.4624371200690	0.88889028337812
6.4527003443823	0.88889032547867
6.4429928648184	0.88889036750475
6.4333145493562	0.88889040945167
6.4236652667667	0.88889045131479
6.4140448866068	0.88889049308946
6.4044532792138	0.88889053477107
6.3948903156997	0.88889057635504
6.3853558679446	0.88889061783679
6.3758498085921	0.88889065921177
6.3663720110427	0.88889070047548
6.3569223494487	0.88889074162342
6.3475006987084	0.88889078265112
6.3381069344609	0.88889082355413
6.3287409330800	0.88889086432805
6.3194025716695	0.88889090496849
6.3100917280572	0.88889094547107
6.3008082807902	0.88889098583148
6.2915521091291	0.88889102604540
6.2823230930427	0.88889106610856
6.2731211132036	0.88889110601670
6.2639460509820	0.88889114576562
6.2547977884415	0.88889118535113
6.2456762083333	0.88889122476905
6.2365811940919	0.88889126401528
6.2275126298297	0.88889130308571
6.2184704003319	0.88889134197627
6.2094543910522	0.88889138068294
6.2004644881075	0.88889141920171
6.1915005782734	0.88889145752863
6.1825625489792	0.88889149565974
6.1736502883031	0.88889153359116
6.1647636849681	0.88889157131901
6.1559026283368	0.88889160883947
6.1470670084068	0.88889164614873
6.1382567158067	0.88889168324303
6.1294716417910	0.88889172011864
6.1207116782360	0.88889175677188
6.1119767176351	0.88889179319908
6.1032666530945	0.88889182939663
6.0945813783289	0.88889186536094
6.0859207876573	0.88889190108847
6.0772847759984	0.88889193657571
6.0686732388664	0.88889197181919
6.0600860723671	0.88889200681548
6.0515231731934	0.88889204156118
6.0429844386212	0.88889207605294
6.0344697665056	0.88889211028744
6.0259790552764	0.88889214426141
6.0175122039342	0.88889217797160
6.0090691120465	0.88889221141482
6.0006496797438	0.88889224458792
5.9922538077154	0.88889227748777
5.9838813972056	0.88889231011131
5.9755323500100	0.88889234245549
5.9672065684713	0.88889237451733
5.9589039554760	0.88889240629386
5.9506244144502	0.88889243778219
5.9423678493558	0.88889246897944
5.9341341646873	0.88889249988279
5.9259232654675	0.88889253048945
5.9177350572444	0.88889256079669
5.9095694460871	0.88889259080181
5.9014263385827	0.88889262050216
5.8933056418321	0.88889264989512
5.8852072634472	0.88889267897813
5.8771311115468	0.88889270774867
5.8690770947533	0.88889273620426
5.8610451221896	0.88889276434246
5.8530351034752	0.88889279216090
5.8450469487229	0.88889281965721
5.8370805685358	0.88889284682912
5.8291358740035	0.88889287367435
5.8212127766990	0.88889290019071
5.8133111886756	0.88889292637604
5.8054310224632	0.88889295222820
5.7975721910656	0.88889297774515
5.7897346079567	0.88889300292484
5.7819181870781	0.88889302776530
5.7741228428351	0.88889305226460
5.7663484900942	0.88889307642085
5.7585950441798	0.88889310023222
5.7508624208709	0.88889312369691
5.7431505363985	0.88889314681318
5.7354593074421	0.88889316957934
5.7277886511272	0.88889319199371
5.7201384850219	0.88889321405472
5.7125087271341	0.88889323576080
5.7048992959087	0.88889325711044
5.6973101102242	0.88889327810218
5.6897410893908	0.88889329873461
5.6821921531463	0.88889331900637
5.6746632216544	0.88889333891613
5.6671542155009	0.88889335846264
5.6596650556919	0.88889337764466
5.6521956636501	0.88889339646103
5.6447459612126	0.88889341491062
5.6373158706281	0.88889343299235
5.6299053145540	0.88889345070520
5.6225142160540	0.88889346804819
5.6151424985952	0.88889348502039
5.6077900860456	0.88889350162092
5.6004569026714	0.88889351784893
5.5931428731343	0.88889353370366
5.5858479224893	0.88889354918435
5.5785719761816	0.88889356429033
5.5713149600446	0.88889357902095
5.5640768002970	0.88889359337562
5.5568574235403	0.88889360735381
5.5496567567568	0.88889362095501
5.5424747273063	0.88889363417879
5.5353112629247	0.88889364702474
5.5281662917204	0.88889365949253
5.5210397421731	0.88889367158184
5.5139315431304	0.88889368329244
5.5068416238060	0.88889369462412
5.4997699137773	0.88889370557672
5.4927163429828	0.88889371615015
5.4856808417200	0.88889372634434
5.4786633406433	0.88889373615929
5.4716637707611	0.88889374559504
5.4646820634342	0.88889375465167
5.4577181503732	0.88889376332933
5.4507719636364	0.88889377162820
5.4438434356274	0.88889377954851
5.4369324990932	0.88889378709054
5.4300390871219	0.88889379425462
5.4231631331404	0.88889380104113
5.4163045709124	0.88889380745050
5.4094633345363	0.88889381348319
5.4026393584430	0.88889381913971
5.3958325773938	0.88889382442065
5.3890429264785	0.88889382932662
5.3822703411131	0.88889383385826
5.3755147570378	0.88889383801630
5.3687761103152	0.88889384180148
5.3620543373278	0.88889384521461
5.3553493747767	0.88889384825654
5.3486611596789	0.88889385092815
5.3419896293656	0.88889385323040
5.3353347214807	0.88889385516425
5.3286963739780	0.88889385673076
5.3220745251198	0.88889385793099
5.3154691134752	0.88889385876608
5.3088800779175	0.88889385923717
5.3023073576229	0.88889385934551
5.2957508920685	0.88889385909233
5.2892106210303	0.88889385847895
5.2826864845815	0.88889385750671
5.2761784230905	0.88889385617701
5.2696863772192	0.88889385449128
5.2632102879213	0.88889385245100
5.2567500964405	0.88889385005770
5.2503057443082	0.88889384731295
5.2438771733427	0.88889384421836
5.2374643256464	0.88889384077558
5.2310671436050	0.88889383698631
5.2246855698850	0.88889383285228
5.2183195474326	0.88889382837529
5.2119690194715	0.88889382355715
5.2056339295016	0.88889381839974
5.1993142212973	0.88889381290495
5.1930098389052	0.88889380707474
5.1867207266436	0.88889380091109
5.1804468290997	0.88889379441605
5.1741880911288	0.88889378759166
5.1679444578521	0.88889378044006
5.1617158746556	0.88889377296338
5.1555022871883	0.88889376516382
5.1493036413604	0.88889375704361
5.1431198833419	0.88889374860501
5.1369509595613	0.88889373985033
5.1307968167037	0.88889373078191
5.1246574017094	0.88889372140215
5.1185326617722	0.88889371171345
5.1124225443383	0.88889370171828
5.1063269971044	0.88889369141913
5.1002459680163	0.88889368081853
5.0941794052676	0.88889366991905
5.0881272572980	0.88889365872329
5.0820894727920	0.88889364723389
5.0760660006773	0.88889363545353
5.0700567901235	0.88889362338490
5.0640617905405	0.88889361103076
5.0580809515775	0.88889359839389
5.0521142231210	0.88889358547708
5.0461615552937	0.88889357228319
5.0402228984533	0.88889355881510
5.0342982031906	0.88889354507570
5.0283874203287	0.88889353106795
5.0224905009214	0.88889351679481
5.0166073962517	0.88889350225929
5.0107380578305	0.88889348746443
5.0048824373957	0.88889347241329
4.9990404869101	0.88889345710896
4.9932121585610	0.88889344155458
4.9873974047579	0.88889342575329
4.9815961781323	0.88889340970827
4.9758084315353	0.88889339342274
4.9700341180371	0.88889337689995
4.9642731909256	0.88889336014314
4.9585256037049	0.88889334315562
4.9527913100942	0.88889332594071
4.9470702640264	0.88889330850175
4.9413624196473	0.88889329084212
4.9356677313138	0.88889327296520
4.9299861535932	0.88889325487443
4.9243176412615	0.88889323657324
4.9186621493027	0.88889321806511
4.9130196329072	0.88889319935352
4.9073900474709	0.88889318044199
4.9017733485939	0.88889316133407
4.8961694920790	0.88889314203330
4.8905784339315	0.88889312254327
4.8850001303569	0.88889310286757
4.8794345377604	0.88889308300983
4.8738816127459	0.88889306297369
4.8683413121143	0.88889304276280
4.8628135928629	0.88889302238085
4.8572984121841	0.88889300183153
4.8517957274640	0.88889298111855
4.8463054962819	0.88889296024565
4.8408276764088	0.88889293921657
4.8353622258065	0.88889291803507
