#Parameters = {thARC=0.2; nARC=2; thsub=1; p=1; nSub=2}
#"Wavelength / um"	"T (242) [Real Part]"
#---------------------------------------
14.989622900000	0.88888884492240
14.937342202292	0.88888875554719
14.885424925521	0.88888866889446
14.833867293419	0.88888858493104
14.782665581854	0.88888850362391
14.731816117936	0.88888842494020
14.681315279138	0.88888834884720
14.631159492435	0.88888827531235
14.581345233463	0.88888820430323
14.531869025691	0.88888813578760
14.482727439614	0.88888806973336
14.433917091960	0.88888800610856
14.385434644914	0.88888794488141
14.337276805356	0.88888788602029
14.289440324118	0.88888782949372
14.241921995249	0.88888777527038
14.194718655303	0.88888772331911
14.147827182633	0.88888767360892
14.101244496707	0.88888762610896
14.054967557431	0.88888758078855
14.008993364486	0.88888753761715
13.963318956684	0.88888749656442
13.917941411328	0.88888745760015
13.872857843591	0.88888742069429
13.828065405904	0.88888738581696
13.783561287356	0.88888735293845
13.739342713107	0.88888732202920
13.695406943810	0.88888729305981
13.651751275046	0.88888726600105
13.608373036768	0.88888724082385
13.565269592760	0.88888721749931
13.522438340099	0.88888719599869
13.479876708633	0.88888717629340
13.437582160466	0.88888715835504
13.395552189455	0.88888714215536
13.353784320713	0.88888712766627
13.312276110124	0.88888711485986
13.271025143869	0.88888710370838
13.230029037952	0.88888709418424
13.189285437747	0.88888708626002
13.148792017544	0.88888707990847
13.108546480105	0.88888707510250
13.068546556234	0.88888707181520
13.028790004346	0.88888707001982
12.989274610052	0.88888706968976
12.949998185745	0.88888707079861
12.910958570198	0.88888707332013
12.872153628167	0.88888707722824
12.833581250000	0.88888708249702
12.795239351259	0.88888708910073
12.757125872340	0.88888709701380
12.719238778108	0.88888710621081
12.681576057530	0.88888711666654
12.644135723323	0.88888712835592
12.606915811606	0.88888714125405
12.569914381551	0.88888715533620
12.533129515050	0.88888717057781
12.496559316382	0.88888718695449
12.460201911887	0.88888720444203
12.424055449648	0.88888722301637
12.388118099174	0.88888724265364
12.352388051092	0.88888726333013
12.316863516845	0.88888728502229
12.281542728390	0.88888730770677
12.246423937908	0.88888733136036
12.211505417515	0.88888735596003
12.176785458976	0.88888738148293
12.142262373431	0.88888740790637
12.107934491115	0.88888743520784
12.073800161095	0.88888746336499
12.039857751004	0.88888749235564
12.006105646776	0.88888752215779
11.972542252396	0.88888755274962
11.939165989646	0.88888758410944
11.905975297855	0.88888761621578
11.872968633663	0.88888764904731
11.840144470774	0.88888768258288
11.807501299724	0.88888771680151
11.775037627651	0.88888775168239
11.742751978065	0.88888778720488
11.710642890625	0.88888782334851
11.678708920919	0.88888786009297
11.646948640249	0.88888789741815
11.615360635413	0.88888793530408
11.583943508501	0.88888797373098
11.552695876686	0.88888801267922
11.521616372022	0.88888805212935
11.490703641242	0.88888809206210
11.459956345566	0.88888813245836
11.429373160503	0.88888817329919
11.398952775665	0.88888821456581
11.368693894577	0.88888825623963
11.338595234493	0.88888829830221
11.308655526217	0.88888834073529
11.278873513920	0.88888838352077
11.249247954972	0.88888842664072
11.219777619760	0.88888847007740
11.190461291527	0.88888851381321
11.161297766195	0.88888855783073
11.132285852209	0.88888860211270
11.103424370370	0.88888864664204
11.074712153676	0.88888869140182
11.046148047163	0.88888873637531
11.017730907755	0.88888878154591
10.989459604106	0.88888882689721
10.961333016453	0.88888887241295
10.933350036470	0.88888891807706
10.905509567115	0.88888896387360
10.877810522496	0.88888900978684
10.850251827723	0.88888905580117
10.822832418773	0.88888910190119
10.795551242348	0.88888914807163
10.768407255747	0.88888919429739
10.741399426729	0.88888924056356
10.714526733381	0.88888928685537
10.687788163993	0.88888933315821
10.661182716927	0.88888937945765
10.634709400497	0.88888942573942
10.608367232838	0.88888947198941
10.582155241793	0.88888951819366
10.556072464789	0.88888956433840
10.530117948718	0.88888961041000
10.504290749825	0.88888965639499
10.478589933590	0.88888970228008
10.453014574616	0.88888974805213
10.427563756522	0.88888979369815
10.402236571825	0.88888983920532
10.377032121841	0.88888988456100
10.351949516575	0.88888992975266
10.326987874612	0.88888997476798
10.302146323024	0.88889001959477
10.277423997257	0.88889006422101
10.252820041040	0.88889010863483
10.228333606278	0.88889015282451
10.203963852961	0.88889019677851
10.179709949066	0.88889024048543
10.155571070461	0.88889028393403
10.131546400811	0.88889032711323
10.107635131490	0.88889037001209
10.083836461487	0.88889041261985
10.060149597315	0.88889045492588
10.036573752929	0.88889049691972
10.013108149633	0.88889053859105
9.9897520159947	0.88889057992972
9.9665045877660	0.88889062092572
9.9433651077944	0.88889066156919
9.9203328259431	0.88889070185043
9.8974069990096	0.88889074175989
9.8745868906456	0.88889078128817
9.8518717712783	0.88889082042601
9.8292609180328	0.88889085916432
9.8067536146549	0.88889089749414
9.7843491514360	0.88889093540668
9.7620468251384	0.88889097289326
9.7398459389214	0.88889100994539
9.7177458022690	0.88889104655471
9.6957457309185	0.88889108271299
9.6738450467893	0.88889111841218
9.6520430779137	0.88889115364435
9.6303391583681	0.88889118840172
9.6087326282051	0.88889122267665
9.5872228333866	0.88889125646167
9.5658091257179	0.88889128974942
9.5444908627826	0.88889132253270
9.5232674078780	0.88889135480445
9.5021381299525	0.88889138655775
9.4811024035421	0.88889141778582
9.4601596087094	0.88889144848203
9.4393091309824	0.88889147863987
9.4185503612944	0.88889150825298
9.3978826959248	0.88889153731516
9.3773055364404	0.88889156582031
9.3568182896380	0.88889159376249
9.3364203674868	0.88889162113590
9.3161111870727	0.88889164793486
9.2958901705426	0.88889167415385
9.2757567450495	0.88889169978745
9.2557103426984	0.88889172483041
9.2357504004929	0.88889174927759
9.2158763602828	0.88889177312400
9.1960876687117	0.88889179636477
9.1763837771656	0.88889181899516
9.1567641417227	0.88889184101059
9.1372282231027	0.88889186240657
9.1177754866180	0.88889188317876
9.0984054021244	0.88889190332296
9.0791174439733	0.88889192283508
9.0599110909640	0.88889194171117
9.0407858262967	0.88889195994740
9.0217411375263	0.88889197754007
9.0027765165165	0.88889199448560
8.9838914593947	0.88889201078056
8.9650854665072	0.88889202642162
8.9463580423754	0.88889204140557
8.9277086956522	0.88889205572935
8.9091369390788	0.88889206938999
8.8906422894425	0.88889208238468
8.8722242675348	0.88889209471071
8.8538823981099	0.88889210636548
8.8356162098438	0.88889211734652
8.8174252352941	0.88889212765150
8.7993090108600	0.88889213727818
8.7812670767428	0.88889214622444
8.7632989769073	0.88889215448831
8.7454042590432	0.88889216206789
8.7275824745269	0.88889216896143
8.7098331783847	0.88889217516728
8.6921559292549	0.88889218068392
8.6745502893519	0.88889218550991
8.6570158244297	0.88889218964397
8.6395521037464	0.88889219308489
8.6221587000288	0.88889219583160
8.6048351894374	0.88889219788313
8.5875811515325	0.88889219923861
8.5703961692396	0.88889219989731
8.5532798288160	0.88889219985857
8.5362317198178	0.88889219912187
8.5192514350668	0.88889219768678
8.5023385706183	0.88889219555298
8.4854927257288	0.88889219272025
8.4687135028249	0.88889218918850
8.4520005074711	0.88889218495771
8.4353533483399	0.88889218002799
8.4187716371806	0.88889217439954
8.4022549887892	0.88889216807266
8.3858030209790	0.88889216104776
8.3694153545505	0.88889215332534
8.3530916132627	0.88889214490602
8.3368314238042	0.88889213579050
8.3206344157646	0.88889212597958
8.3045002216066	0.88889211547417
8.2884284766381	0.88889210427525
8.2724188189845	0.88889209238394
8.2564708895621	0.88889207980141
8.2405843320506	0.88889206652895
8.2247587928669	0.88889205256793
8.2089939211391	0.88889203791984
8.1932893686800	0.88889202258623
8.1776447899618	0.88889200656875
8.1620598420909	0.88889198986915
8.1465341847826	0.88889197248927
8.1310674803363	0.88889195443103
8.1156593936113	0.88889193569644
8.1003095920022	0.88889191628760
8.0850177454153	0.88889189620669
8.0697835262450	0.88889187545600
8.0546066093498	0.88889185403787
8.0394866720300	0.88889183195475
8.0244233940043	0.88889180920916
8.0094164573871	0.88889178580371
7.9944655466667	0.88889176174109
7.9795703486825	0.88889173702408
7.9647305526036	0.88889171165552
7.9499458499072	0.88889168563834
7.9352159343568	0.88889165897556
7.9205405019815	0.88889163167026
7.9059192510549	0.88889160372561
7.8913518820742	0.88889157514485
7.8768380977404	0.88889154593130
7.8623776029373	0.88889151608835
7.8479701047120	0.88889148561947
7.8336153122550	0.88889145452819
7.8193129368805	0.88889142281813
7.8050626920073	0.88889139049297
7.7908642931393	0.88889135755647
7.7767174578470	0.88889132401245
7.7626219057483	0.88889128986480
7.7485773584906	0.88889125511749
7.7345835397317	0.88889121977454
7.7206401751223	0.88889118384007
7.7067469922879	0.88889114731821
7.6929037208109	0.88889111021321
7.6791100922131	0.88889107252936
7.6653658399386	0.88889103427102
7.6516706993364	0.88889099544259
7.6380244076433	0.88889095604857
7.6244267039674	0.88889091609349
7.6108773292714	0.88889087558197
7.5973760263558	0.88889083451865
7.5839225398432	0.88889079290826
7.5705166161616	0.88889075075559
7.5571580035291	0.88889070806546
7.5438464519376	0.88889066484278
7.5305817131374	0.88889062109248
7.5173635406219	0.88889057681957
7.5041916896120	0.88889053202911
7.4910659170415	0.88889048672621
7.4779859815415	0.88889044091604
7.4649516434263	0.88889039460380
7.4519626646781	0.88889034779476
7.4390188089330	0.88889030049424
7.4261198414664	0.88889025270759
7.4132655291790	0.88889020444025
7.4004556405826	0.88889015569765
7.3876899457861	0.88889010648532
7.3749682164822	0.88889005680880
7.3622902259332	0.88889000667369
7.3496557489581	0.88888995608564
7.3370645619187	0.88888990505034
7.3245164427071	0.88888985357350
7.3120111707317	0.88888980166090
7.2995485269053	0.88888974931836
7.2871282936315	0.88888969655173
7.2747502547925	0.88888964336689
7.2624141957364	0.88888958976979
7.2501199032648	0.88888953576638
7.2378671656205	0.88888948136269
7.2256557724753	0.88888942656474
7.2134855149182	0.88888937137862
7.2013561854432	0.88888931581045
7.1892675779376	0.88888925986636
7.1772194876706	0.88888920355255
7.1652117112811	0.88888914687522
7.1532440467669	0.88888908984062
7.1413162934731	0.88888903245503
7.1294282520809	0.88888897472476
7.1175797245964	0.88888891665613
7.1057705143399	0.88888885825552
7.0940004259347	0.88888879952932
7.0822692652965	0.88888874048394
7.0705768396226	0.88888868112584
7.0589229573817	0.88888862146148
7.0473074283028	0.88888856149736
7.0357300633654	0.88888850124001
7.0241906747891	0.88888844069596
7.0126890760234	0.88888837987178
7.0012250817375	0.88888831877407
6.9897985078107	0.88888825740942
6.9784091713222	0.88888819578447
6.9670568905415	0.88888813390586
6.9557414849188	0.88888807178028
6.9444627750753	0.88888800941439
6.9332205827937	0.88888794681490
6.9220147310090	0.88888788398853
6.9108450437990	0.88888782094202
6.8997113463751	0.88888775768211
6.8886134650735	0.88888769421557
6.8775512273457	0.88888763054917
6.8665244617499	0.88888756668971
6.8555329979419	0.88888750264399
6.8445766666667	0.88888743841882
6.8336552997493	0.88888737402102
6.8227687300865	0.88888730945743
6.8119167916383	0.88888724473489
6.8010993194192	0.88888717986024
6.7903161494904	0.88888711484036
6.7795671189507	0.88888704968210
6.7688520659291	0.88888698439233
6.7581708295762	0.88888691897794
6.7475232500563	0.88888685344579
6.7369091685393	0.88888678780279
6.7263284271932	0.88888672205581
6.7157808691756	0.88888665621175
6.7052663386267	0.88888659027749
6.6947846806610	0.88888652425995
6.6843357413601	0.88888645816600
6.6739193677649	0.88888639200254
6.6635354078684	0.88888632577647
6.6531837106081	0.88888625949468
6.6428641258586	0.88888619316406
6.6325765044248	0.88888612679149
6.6223206980340	0.88888606038385
6.6120965593295	0.88888599394803
6.6019039418630	0.88888592749090
6.5917427000879	0.88888586101932
6.5816126893524	0.88888579454016
6.5715137658922	0.88888572806026
6.5614457868243	0.88888566158648
6.5514086101399	0.88888559512565
6.5414020946978	0.88888552868460
6.5314261002179	0.88888546227015
6.5214804872743	0.88888539588911
6.5115651172893	0.88888532954827
6.5016798525266	0.88888526325442
6.4918245560849	0.88888519701433
6.4819990918919	0.88888513083476
6.4722033246978	0.88888506472246
6.4624371200690	0.88888499868415
6.4527003443823	0.88888493272656
6.4429928648184	0.88888486685639
6.4333145493562	0.88888480108031
6.4236652667667	0.88888473540501
6.4140448866068	0.88888466983712
6.4044532792138	0.88888460438328
6.3948903156997	0.88888453905011
6.3853558679446	0.88888447384420
6.3758498085921	0.88888440877212
6.3663720110427	0.88888434384042
6.3569223494487	0.88888427905564
6.3475006987084	0.88888421442429
6.3381069344609	0.88888414995286
6.3287409330800	0.88888408564780
6.3194025716695	0.88888402151557
6.3100917280572	0.88888395756259
6.3008082807902	0.88888389379523
6.2915521091291	0.88888383021987
6.2823230930427	0.88888376684286
6.2731211132036	0.88888370367050
6.2639460509820	0.88888364070908
6.2547977884415	0.88888357796487
6.2456762083333	0.88888351544409
6.2365811940919	0.88888345315296
6.2275126298297	0.88888339109763
6.2184704003319	0.88888332928426
6.2094543910522	0.88888326771896
6.2004644881075	0.88888320640782
6.1915005782734	0.88888314535688
6.1825625489792	0.88888308457216
6.1736502883031	0.88888302405965
6.1647636849681	0.88888296382530
6.1559026283368	0.88888290387503
6.1470670084068	0.88888284421473
6.1382567158067	0.88888278485025
6.1294716417910	0.88888272578741
6.1207116782360	0.88888266703198
6.1119767176351	0.88888260858970
6.1032666530945	0.88888255046629
6.0945813783289	0.88888249266742
6.0859207876573	0.88888243519871
6.0772847759984	0.88888237806577
6.0686732388664	0.88888232127414
6.0600860723671	0.88888226482934
6.0515231731934	0.88888220873685
6.0429844386212	0.88888215300211
6.0344697665056	0.88888209763051
6.0259790552764	0.88888204262740
6.0175122039342	0.88888198799811
6.0090691120465	0.88888193374789
6.0006496797438	0.88888187988198
5.9922538077154	0.88888182640557
5.9838813972056	0.88888177332380
5.9755323500100	0.88888172064176
5.9672065684713	0.88888166836452
5.9589039554760	0.88888161649707
5.9506244144502	0.88888156504440
5.9423678493558	0.88888151401141
5.9341341646873	0.88888146340298
5.9259232654675	0.88888141322394
5.9177350572444	0.88888136347906
5.9095694460871	0.88888131417309
5.9014263385827	0.88888126531071
5.8933056418321	0.88888121689655
5.8852072634472	0.88888116893521
5.8771311115468	0.88888112143122
5.8690770947533	0.88888107438909
5.8610451221896	0.88888102781324
5.8530351034752	0.88888098170808
5.8450469487229	0.88888093607794
5.8370805685358	0.88888089092713
5.8291358740035	0.88888084625987
5.8212127766990	0.88888080208036
5.8133111886756	0.88888075839274
5.8054310224632	0.88888071520109
5.7975721910656	0.88888067250945
5.7897346079567	0.88888063032180
5.7819181870781	0.88888058864206
5.7741228428351	0.88888054747411
5.7663484900942	0.88888050682178
5.7585950441798	0.88888046668882
5.7508624208709	0.88888042707895
5.7431505363985	0.88888038799584
5.7354593074421	0.88888034944307
5.7277886511272	0.88888031142421
5.7201384850219	0.88888027394274
5.7125087271341	0.88888023700210
5.7048992959087	0.88888020060567
5.6973101102242	0.88888016475677
5.6897410893908	0.88888012945868
5.6821921531463	0.88888009471460
5.6746632216544	0.88888006052768
5.6671542155009	0.88888002690103
5.6596650556919	0.88887999383768
5.6521956636501	0.88887996134061
5.6447459612126	0.88887992941275
5.6373158706281	0.88887989805695
5.6299053145540	0.88887986727603
5.6225142160540	0.88887983707272
5.6151424985952	0.88887980744972
5.6077900860456	0.88887977840965
5.6004569026714	0.88887974995508
5.5931428731343	0.88887972208853
5.5858479224893	0.88887969481243
5.5785719761816	0.88887966812917
5.5713149600446	0.88887964204109
5.5640768002970	0.88887961655045
5.5568574235403	0.88887959165946
5.5496567567568	0.88887956737025
5.5424747273063	0.88887954368493
5.5353112629247	0.88887952060550
5.5281662917204	0.88887949813393
5.5210397421731	0.88887947627212
5.5139315431304	0.88887945502190
5.5068416238060	0.88887943438506
5.4997699137773	0.88887941436330
5.4927163429828	0.88887939495829
5.4856808417200	0.88887937617159
5.4786633406433	0.88887935800475
5.4716637707611	0.88887934045922
5.4646820634342	0.88887932353641
5.4577181503732	0.88887930723766
5.4507719636364	0.88887929156423
5.4438434356274	0.88887927651734
5.4369324990932	0.88887926209814
5.4300390871219	0.88887924830772
5.4231631331404	0.88887923514709
5.4163045709124	0.88887922261721
5.4094633345363	0.88887921071898
5.4026393584430	0.88887919945323
5.3958325773938	0.88887918882072
5.3890429264785	0.88887917882217
5.3822703411131	0.88887916945819
5.3755147570378	0.88887916072939
5.3687761103152	0.88887915263625
5.3620543373278	0.88887914517923
5.3553493747767	0.88887913835872
5.3486611596789	0.88887913217503
5.3419896293656	0.88887912662842
5.3353347214807	0.88887912171907
5.3286963739780	0.88887911744711
5.3220745251198	0.88887911381261
5.3154691134752	0.88887911081556
5.3088800779175	0.88887910845589
5.3023073576229	0.88887910673348
5.2957508920685	0.88887910564813
5.2892106210303	0.88887910519957
5.2826864845815	0.88887910538749
5.2761784230905	0.88887910621150
5.2696863772192	0.88887910767114
5.2632102879213	0.88887910976589
5.2567500964405	0.88887911249518
5.2503057443082	0.88887911585837
5.2438771733427	0.88887911985473
5.2374643256464	0.88887912448350
5.2310671436050	0.88887912974385
5.2246855698850	0.88887913563486
5.2183195474326	0.88887914215558
5.2119690194715	0.88887914930497
5.2056339295016	0.88887915708195
5.1993142212973	0.88887916548536
5.1930098389052	0.88887917451397
5.1867207266436	0.88887918416651
5.1804468290997	0.88887919444162
5.1741880911288	0.88887920533790
5.1679444578521	0.88887921685387
5.1617158746556	0.88887922898800
5.1555022871883	0.88887924173869
5.1493036413604	0.88887925510428
5.1431198833419	0.88887926908303
5.1369509595613	0.88887928367317
5.1307968167037	0.88887929887283
5.1246574017094	0.88887931468012
5.1185326617722	0.88887933109305
5.1124225443383	0.88887934810960
5.1063269971044	0.88887936572765
5.1002459680163	0.88887938394504
5.0941794052676	0.88887940275957
5.0881272572980	0.88887942216894
5.0820894727920	0.88887944217080
5.0760660006773	0.88887946276276
5.0700567901235	0.88887948394235
5.0640617905405	0.88887950570703
5.0580809515775	0.88887952805422
5.0521142231210	0.88887955098128
5.0461615552937	0.88887957448548
5.0402228984533	0.88887959856407
5.0342982031906	0.88887962321422
5.0283874203287	0.88887964843303
5.0224905009214	0.88887967421757
5.0166073962517	0.88887970056482
5.0107380578305	0.88887972747172
5.0048824373957	0.88887975493515
4.9990404869101	0.88887978295193
4.9932121585610	0.88887981151881
4.9873974047579	0.88887984063250
4.9815961781323	0.88887987028964
4.9758084315353	0.88887990048682
4.9700341180371	0.88887993122056
4.9642731909256	0.88887996248736
4.9585256037049	0.88887999428361
4.9527913100942	0.88888002660568
4.9470702640264	0.88888005944988
4.9413624196473	0.88888009281245
4.9356677313138	0.88888012668958
4.9299861535932	0.88888016107743
4.9243176412615	0.88888019597206
4.9186621493027	0.88888023136951
4.9130196329072	0.88888026726575
4.9073900474709	0.88888030365670
4.9017733485939	0.88888034053824
4.8961694920790	0.88888037790617
4.8905784339315	0.88888041575626
4.8850001303569	0.88888045408421
4.8794345377604	0.88888049288568
4.8738816127459	0.88888053215628
4.8683413121143	0.88888057189156
4.8628135928629	0.88888061208701
4.8572984121841	0.88888065273810
4.8517957274640	0.88888069384022
4.8463054962819	0.88888073538872
4.8408276764088	0.88888077737890
4.8353622258065	0.88888081980601
