#Parameters = {thARC=0.6; nARC=2; thsub=1; p=1; nSub=2}
#"Wavelength / um"	"T (244) [Real Part]"
#---------------------------------------
14.989622900000	0.88888928519864
14.937342202292	0.88889542099219
14.885424925521	0.88890134864793
14.833867293419	0.88890707184102
14.782665581854	0.88891259420908
14.731816117936	0.88891791935226
14.681315279138	0.88892305083346
14.631159492435	0.88892799217843
14.581345233463	0.88893274687596
14.531869025691	0.88893731837798
14.482727439614	0.88894171009977
14.433917091960	0.88894592542007
14.385434644914	0.88894996768127
14.337276805356	0.88895384018955
14.289440324118	0.88895754621504
14.241921995249	0.88896108899198
14.194718655303	0.88896447171889
14.147827182633	0.88896769755875
14.101244496707	0.88897076963911
14.054967557431	0.88897369105232
14.008993364486	0.88897646485566
13.963318956684	0.88897909407153
13.917941411328	0.88898158168759
13.872857843591	0.88898393065697
13.828065405904	0.88898614389843
13.783561287356	0.88898822429649
13.739342713107	0.88899017470170
13.695406943810	0.88899199793071
13.651751275046	0.88899369676652
13.608373036768	0.88899527395864
13.565269592760	0.88899673222326
13.522438340099	0.88899807424342
13.479876708633	0.88899930266922
13.437582160466	0.88900042011800
13.395552189455	0.88900142917450
13.353784320713	0.88900233239104
13.312276110124	0.88900313228775
13.271025143869	0.88900383135272
13.230029037952	0.88900443204219
13.189285437747	0.88900493678073
13.148792017544	0.88900534796147
13.108546480105	0.88900566794622
13.068546556234	0.88900589906574
13.028790004346	0.88900604361985
12.989274610052	0.88900610387770
12.949998185745	0.88900608207790
12.910958570198	0.88900598042873
12.872153628167	0.88900580110836
12.833581250000	0.88900554626500
12.795239351259	0.88900521801713
12.757125872340	0.88900481845368
12.719238778108	0.88900434963423
12.681576057530	0.88900381358920
12.644135723323	0.88900321232004
12.606915811606	0.88900254779945
12.569914381551	0.88900182197156
12.533129515050	0.88900103675213
12.496559316382	0.88900019402874
12.460201911887	0.88899929566102
12.424055449648	0.88899834348082
12.388118099174	0.88899733929240
12.352388051092	0.88899628487266
12.316863516845	0.88899518197132
12.281542728390	0.88899403231114
12.246423937908	0.88899283758809
12.211505417515	0.88899159947157
12.176785458976	0.88899031960462
12.142262373431	0.88898899960408
12.107934491115	0.88898764106086
12.073800161095	0.88898624554006
12.039857751004	0.88898481458125
12.006105646776	0.88898334969861
11.972542252396	0.88898185238116
11.939165989646	0.88898032409296
11.905975297855	0.88897876627332
11.872968633663	0.88897718033698
11.840144470774	0.88897556767431
11.807501299724	0.88897392965157
11.775037627651	0.88897226761101
11.742751978065	0.88897058287118
11.710642890625	0.88896887672704
11.678708920919	0.88896715045025
11.646948640249	0.88896540528926
11.615360635413	0.88896364246965
11.583943508501	0.88896186319420
11.552695876686	0.88896006864317
11.521616372022	0.88895825997449
11.490703641242	0.88895643832394
11.459956345566	0.88895460480536
11.429373160503	0.88895276051087
11.398952775665	0.88895090651102
11.368693894577	0.88894904385507
11.338595234493	0.88894717357110
11.308655526217	0.88894529666628
11.278873513920	0.88894341412704
11.249247954972	0.88894152691927
11.219777619760	0.88893963598851
11.190461291527	0.88893774226018
11.161297766195	0.88893584663974
11.132285852209	0.88893395001292
11.103424370370	0.88893205324590
11.074712153676	0.88893015718550
11.046148047163	0.88892826265940
11.017730907755	0.88892637047633
10.989459604106	0.88892448142624
10.961333016453	0.88892259628052
10.933350036470	0.88892071579221
10.905509567115	0.88891884069617
10.877810522496	0.88891697170925
10.850251827723	0.88891510953055
10.822832418773	0.88891325484155
10.795551242348	0.88891140830636
10.768407255747	0.88890957057185
10.741399426729	0.88890774226789
10.714526733381	0.88890592400752
10.687788163993	0.88890411638714
10.661182716927	0.88890231998672
10.634709400497	0.88890053536995
10.608367232838	0.88889876308448
10.582155241793	0.88889700366207
10.556072464789	0.88889525761878
10.530117948718	0.88889352545518
10.504290749825	0.88889180765652
10.478589933590	0.88889010469291
10.453014574616	0.88888841701951
10.427563756522	0.88888674507674
10.402236571825	0.88888508929042
10.377032121841	0.88888345007198
10.351949516575	0.88888182781864
10.326987874612	0.88888022291359
10.302146323024	0.88887863572617
10.277423997257	0.88887706661204
10.252820041040	0.88887551591337
10.228333606278	0.88887398395903
10.203963852961	0.88887247106474
10.179709949066	0.88887097753329
10.155571070461	0.88886950365465
10.131546400811	0.88886804970622
10.107635131490	0.88886661595295
10.083836461487	0.88886520264754
10.060149597315	0.88886381003060
10.036573752929	0.88886243833085
10.013108149633	0.88886108776524
9.9897520159947	0.88885975853919
9.9665045877660	0.88885845084669
9.9433651077944	0.88885716487051
9.9203328259431	0.88885590078238
9.8974069990096	0.88885465874309
9.8745868906456	0.88885343890276
9.8518717712783	0.88885224140090
9.8292609180328	0.88885106636666
9.8067536146549	0.88884991391893
9.7843491514360	0.88884878416654
9.7620468251384	0.88884767720843
9.7398459389214	0.88884659313377
9.7177458022690	0.88884553202216
9.6957457309185	0.88884449394375
9.6738450467893	0.88884347895944
9.6520430779137	0.88884248712103
9.6303391583681	0.88884151847134
9.6087326282051	0.88884057304440
9.5872228333866	0.88883965086560
9.5658091257179	0.88883875195185
9.5444908627826	0.88883787631168
9.5232674078780	0.88883702394549
9.5021381299525	0.88883619484561
9.4811024035421	0.88883538899647
9.4601596087094	0.88883460637481
9.4393091309824	0.88883384694974
9.4185503612944	0.88883311068295
9.3978826959248	0.88883239752880
9.3773055364404	0.88883170743455
9.3568182896380	0.88883104034041
9.3364203674868	0.88883039617973
9.3161111870727	0.88882977487915
9.2958901705426	0.88882917635872
9.2757567450495	0.88882860053205
9.2557103426984	0.88882804730642
9.2357504004929	0.88882751658299
9.2158763602828	0.88882700825684
9.1960876687117	0.88882652221719
9.1763837771656	0.88882605834747
9.1567641417227	0.88882561652551
9.1372282231027	0.88882519662362
9.1177754866180	0.88882479850877
9.0984054021244	0.88882442204268
9.0791174439733	0.88882406708196
9.0599110909640	0.88882373347827
9.0407858262967	0.88882342107839
9.0217411375263	0.88882312972439
9.0027765165165	0.88882285925375
8.9838914593947	0.88882260949945
8.9650854665072	0.88882238029016
8.9463580423754	0.88882217145028
8.9277086956522	0.88882198280011
8.9091369390788	0.88882181415597
8.8906422894425	0.88882166533031
8.8722242675348	0.88882153613182
8.8538823981099	0.88882142636554
8.8356162098438	0.88882133583300
8.8174252352941	0.88882126433233
8.7993090108600	0.88882121165835
8.7812670767428	0.88882117760269
8.7632989769073	0.88882116195393
8.7454042590432	0.88882116449767
8.7275824745269	0.88882118501667
8.7098331783847	0.88882122329091
8.6921559292549	0.88882127909777
8.6745502893519	0.88882135221207
8.6570158244297	0.88882144240621
8.6395521037464	0.88882154945026
8.6221587000288	0.88882167311205
8.6048351894374	0.88882181315731
8.5875811515325	0.88882196934972
8.5703961692396	0.88882214145106
8.5532798288160	0.88882232922126
8.5362317198178	0.88882253241853
8.5192514350668	0.88882275079944
8.5023385706183	0.88882298411901
8.4854927257288	0.88882323213082
8.4687135028249	0.88882349458709
8.4520005074711	0.88882377123878
8.4353533483399	0.88882406183567
8.4187716371806	0.88882436612645
8.4022549887892	0.88882468385882
8.3858030209790	0.88882501477955
8.3694153545505	0.88882535863461
8.3530916132627	0.88882571516920
8.3368314238042	0.88882608412789
8.3206344157646	0.88882646525464
8.3045002216066	0.88882685829295
8.2884284766381	0.88882726298587
8.2724188189845	0.88882767907615
8.2564708895621	0.88882810630625
8.2405843320506	0.88882854441848
8.2247587928669	0.88882899315501
8.2089939211391	0.88882945225802
8.1932893686800	0.88882992146969
8.1776447899618	0.88883040053235
8.1620598420909	0.88883088918851
8.1465341847826	0.88883138718092
8.1310674803363	0.88883189425269
8.1156593936113	0.88883241014729
8.1003095920022	0.88883293460869
8.0850177454153	0.88883346738136
8.0697835262450	0.88883400821037
8.0546066093498	0.88883455684147
8.0394866720300	0.88883511302111
8.0244233940043	0.88883567649653
8.0094164573871	0.88883624701583
7.9944655466667	0.88883682432798
7.9795703486825	0.88883740818295
7.9647305526036	0.88883799833173
7.9499458499072	0.88883859452635
7.9352159343568	0.88883919652003
7.9205405019815	0.88883980406714
7.9059192510549	0.88884041692331
7.8913518820742	0.88884103484546
7.8768380977404	0.88884165759187
7.8623776029373	0.88884228492220
7.8479701047120	0.88884291659758
7.8336153122550	0.88884355238062
7.8193129368805	0.88884419203549
7.8050626920073	0.88884483532794
7.7908642931393	0.88884548202536
7.7767174578470	0.88884613189684
7.7626219057483	0.88884678471317
7.7485773584906	0.88884744024694
7.7345835397317	0.88884809827252
7.7206401751223	0.88884875856615
7.7067469922879	0.88884942090598
7.6929037208109	0.88885008507205
7.6791100922131	0.88885075084641
7.6653658399386	0.88885141801308
7.6516706993364	0.88885208635817
7.6380244076433	0.88885275566982
7.6244267039674	0.88885342573832
7.6108773292714	0.88885409635608
7.5973760263558	0.88885476731770
7.5839225398432	0.88885543842001
7.5705166161616	0.88885610946203
7.5571580035291	0.88885678024511
7.5438464519376	0.88885745057285
7.5305817131374	0.88885812025122
7.5173635406219	0.88885878908851
7.5041916896120	0.88885945689541
7.4910659170415	0.88886012348501
7.4779859815415	0.88886078867283
7.4649516434263	0.88886145227685
7.4519626646781	0.88886211411753
7.4390188089330	0.88886277401780
7.4261198414664	0.88886343180314
7.4132655291790	0.88886408730157
7.4004556405826	0.88886474034365
7.3876899457861	0.88886539076253
7.3749682164822	0.88886603839396
7.3622902259332	0.88886668307628
7.3496557489581	0.88886732465048
7.3370645619187	0.88886796296019
7.3245164427071	0.88886859785168
7.3120111707317	0.88886922917391
7.2995485269053	0.88886985677853
7.2871282936315	0.88887048051985
7.2747502547925	0.88887110025494
7.2624141957364	0.88887171584353
7.2501199032648	0.88887232714812
7.2378671656205	0.88887293403393
7.2256557724753	0.88887353636893
7.2134855149182	0.88887413402383
7.2013561854432	0.88887472687210
7.1892675779376	0.88887531479000
7.1772194876706	0.88887589765653
7.1652117112811	0.88887647535347
7.1532440467669	0.88887704776539
7.1413162934731	0.88887761477963
7.1294282520809	0.88887817628630
7.1175797245964	0.88887873217834
7.1057705143399	0.88887928235142
7.0940004259347	0.88887982670404
7.0822692652965	0.88888036513746
7.0705768396226	0.88888089755574
7.0589229573817	0.88888142386571
7.0473074283028	0.88888194397699
7.0357300633654	0.88888245780197
7.0241906747891	0.88888296525583
7.0126890760234	0.88888346625649
7.0012250817375	0.88888396072468
6.9897985078107	0.88888444858384
6.9784091713222	0.88888492976019
6.9670568905415	0.88888540418270
6.9557414849188	0.88888587178307
6.9444627750753	0.88888633249573
6.9332205827937	0.88888678625783
6.9220147310090	0.88888723300925
6.9108450437990	0.88888767269256
6.8997113463751	0.88888810525302
6.8886134650735	0.88888853063859
6.8775512273457	0.88888894879988
6.8665244617499	0.88888935969019
6.8555329979419	0.88888976326542
6.8445766666667	0.88889015948416
6.8336552997493	0.88889054830758
6.8227687300865	0.88889092969948
6.8119167916383	0.88889130362623
6.8010993194192	0.88889167005681
6.7903161494904	0.88889202896273
6.7795671189507	0.88889238031806
6.7688520659291	0.88889272409941
6.7581708295762	0.88889306028588
6.7475232500563	0.88889338885910
6.7369091685393	0.88889370980313
6.7263284271932	0.88889402310454
6.7157808691756	0.88889432875231
6.7052663386267	0.88889462673785
6.6947846806610	0.88889491705497
6.6843357413601	0.88889519969987
6.6739193677649	0.88889547467110
6.6635354078684	0.88889574196957
6.6531837106081	0.88889600159850
6.6428641258586	0.88889625356341
6.6325765044248	0.88889649787208
6.6223206980340	0.88889673453458
6.6120965593295	0.88889696356319
6.6019039418630	0.88889718497240
6.5917427000879	0.88889739877888
6.5816126893524	0.88889760500149
6.5715137658922	0.88889780366120
6.5614457868243	0.88889799478111
6.5514086101399	0.88889817838639
6.5414020946978	0.88889835450431
6.5314261002179	0.88889852316414
6.5214804872743	0.88889868439718
6.5115651172893	0.88889883823673
6.5016798525266	0.88889898471804
6.4918245560849	0.88889912387830
6.4819990918919	0.88889925575659
6.4722033246978	0.88889938039390
6.4624371200690	0.88889949783306
6.4527003443823	0.88889960811874
6.4429928648184	0.88889971129738
6.4333145493562	0.88889980741722
6.4236652667667	0.88889989652825
6.4140448866068	0.88889997868214
6.4044532792138	0.88890005393227
6.3948903156997	0.88890012233370
6.3853558679446	0.88890018394307
6.3758498085921	0.88890023881865
6.3663720110427	0.88890028702029
6.3569223494487	0.88890032860936
6.3475006987084	0.88890036364876
6.3381069344609	0.88890039220285
6.3287409330800	0.88890041433747
6.3194025716695	0.88890043011985
6.3100917280572	0.88890043961865
6.3008082807902	0.88890044290387
6.2915521091291	0.88890044004683
6.2823230930427	0.88890043112018
6.2731211132036	0.88890041619781
6.2639460509820	0.88890039535488
6.2547977884415	0.88890036866773
6.2456762083333	0.88890033621390
6.2365811940919	0.88890029807207
6.2275126298297	0.88890025432202
6.2184704003319	0.88890020504463
6.2094543910522	0.88890015032184
6.2004644881075	0.88890009023660
6.1915005782734	0.88890002487285
6.1825625489792	0.88889995431549
6.1736502883031	0.88889987865036
6.1647636849681	0.88889979796418
6.1559026283368	0.88889971234454
6.1470670084068	0.88889962187986
6.1382567158067	0.88889952665939
6.1294716417910	0.88889942677310
6.1207116782360	0.88889932231174
6.1119767176351	0.88889921336676
6.1032666530945	0.88889910003028
6.0945813783289	0.88889898239506
6.0859207876573	0.88889886055448
6.0772847759984	0.88889873460250
6.0686732388664	0.88889860463364
6.0600860723671	0.88889847074293
6.0515231731934	0.88889833302589
6.0429844386212	0.88889819157851
6.0344697665056	0.88889804649718
6.0259790552764	0.88889789787870
6.0175122039342	0.88889774582025
6.0090691120465	0.88889759041931
6.0006496797438	0.88889743177370
5.9922538077154	0.88889726998149
5.9838813972056	0.88889710514099
5.9755323500100	0.88889693735073
5.9672065684713	0.88889676670942
5.9589039554760	0.88889659331592
5.9506244144502	0.88889641726922
5.9423678493558	0.88889623866839
5.9341341646873	0.88889605761255
5.9259232654675	0.88889587420089
5.9177350572444	0.88889568853256
5.9095694460871	0.88889550070670
5.9014263385827	0.88889531082242
5.8933056418321	0.88889511897869
5.8852072634472	0.88889492527442
5.8771311115468	0.88889472980834
5.8690770947533	0.88889453267903
5.8610451221896	0.88889433398487
5.8530351034752	0.88889413382400
5.8450469487229	0.88889393229431
5.8370805685358	0.88889372949341
5.8291358740035	0.88889352551860
5.8212127766990	0.88889332046685
5.8133111886756	0.88889311443474
5.8054310224632	0.88889290751849
5.7975721910656	0.88889269981388
5.7897346079567	0.88889249141626
5.7819181870781	0.88889228242049
5.7741228428351	0.88889207292096
5.7663484900942	0.88889186301151
5.7585950441798	0.88889165278546
5.7508624208709	0.88889144233554
5.7431505363985	0.88889123175388
5.7354593074421	0.88889102113200
5.7277886511272	0.88889081056077
5.7201384850219	0.88889060013038
5.7125087271341	0.88889038993034
5.7048992959087	0.88889018004943
5.6973101102242	0.88888997057571
5.6897410893908	0.88888976159643
5.6821921531463	0.88888955319811
5.6746632216544	0.88888934546643
5.6671542155009	0.88888913848622
5.6596650556919	0.88888893234151
5.6521956636501	0.88888872711540
5.6447459612126	0.88888852289014
5.6373158706281	0.88888831974702
5.6299053145540	0.88888811776643
5.6225142160540	0.88888791702778
5.6151424985952	0.88888771760952
5.6077900860456	0.88888751958908
5.6004569026714	0.88888732304290
5.5931428731343	0.88888712804636
5.5858479224893	0.88888693467380
5.5785719761816	0.88888674299849
5.5713149600446	0.88888655309260
5.5640768002970	0.88888636502720
5.5568574235403	0.88888617887224
5.5496567567568	0.88888599469651
5.5424747273063	0.88888581256766
5.5353112629247	0.88888563255216
5.5281662917204	0.88888545471529
5.5210397421731	0.88888527912111
5.5139315431304	0.88888510583249
5.5068416238060	0.88888493491103
5.4997699137773	0.88888476641710
5.4927163429828	0.88888460040981
5.4856808417200	0.88888443694698
5.4786633406433	0.88888427608514
5.4716637707611	0.88888411787953
5.4646820634342	0.88888396238405
5.4577181503732	0.88888380965130
5.4507719636364	0.88888365973251
5.4438434356274	0.88888351267759
5.4369324990932	0.88888336853505
5.4300390871219	0.88888322735207
5.4231631331404	0.88888308917440
5.4163045709124	0.88888295404644
5.4094633345363	0.88888282201116
5.4026393584430	0.88888269311013
5.3958325773938	0.88888256738350
5.3890429264785	0.88888244486997
5.3822703411131	0.88888232560683
5.3755147570378	0.88888220962993
5.3687761103152	0.88888209697363
5.3620543373278	0.88888198767087
5.3553493747767	0.88888188175312
5.3486611596789	0.88888177925037
5.3419896293656	0.88888168019112
5.3353347214807	0.88888158460243
5.3286963739780	0.88888149250984
5.3220745251198	0.88888140393742
5.3154691134752	0.88888131890772
5.3088800779175	0.88888123744184
5.3023073576229	0.88888115955933
5.2957508920685	0.88888108527826
5.2892106210303	0.88888101461520
5.2826864845815	0.88888094758521
5.2761784230905	0.88888088420184
5.2696863772192	0.88888082447712
5.2632102879213	0.88888076842158
5.2567500964405	0.88888071604425
5.2503057443082	0.88888066735263
5.2438771733427	0.88888062235272
5.2374643256464	0.88888058104901
5.2310671436050	0.88888054344449
5.2246855698850	0.88888050954064
5.2183195474326	0.88888047933742
5.2119690194715	0.88888045283331
5.2056339295016	0.88888043002530
5.1993142212973	0.88888041090886
5.1930098389052	0.88888039547797
5.1867207266436	0.88888038372516
5.1804468290997	0.88888037564143
5.1741880911288	0.88888037121634
5.1679444578521	0.88888037043797
5.1617158746556	0.88888037329290
5.1555022871883	0.88888037976631
5.1493036413604	0.88888038984188
5.1431198833419	0.88888040350186
5.1369509595613	0.88888042072706
5.1307968167037	0.88888044149686
5.1246574017094	0.88888046578921
5.1185326617722	0.88888049358066
5.1124225443383	0.88888052484634
5.1063269971044	0.88888055955999
5.1002459680163	0.88888059769396
5.0941794052676	0.88888063921923
5.0881272572980	0.88888068410539
5.0820894727920	0.88888073232071
5.0760660006773	0.88888078383208
5.0700567901235	0.88888083860508
5.0640617905405	0.88888089660397
5.0580809515775	0.88888095779168
5.0521142231210	0.88888102212985
5.0461615552937	0.88888108957886
5.0402228984533	0.88888116009778
5.0342982031906	0.88888123364446
5.0283874203287	0.88888131017547
5.0224905009214	0.88888138964619
5.0166073962517	0.88888147201075
5.0107380578305	0.88888155722211
5.0048824373957	0.88888164523204
4.9990404869101	0.88888173599111
4.9932121585610	0.88888182944879
4.9873974047579	0.88888192555338
4.9815961781323	0.88888202425207
4.9758084315353	0.88888212549095
4.9700341180371	0.88888222921501
4.9642731909256	0.88888233536820
4.9585256037049	0.88888244389340
4.9527913100942	0.88888255473247
4.9470702640264	0.88888266782626
4.9413624196473	0.88888278311461
4.9356677313138	0.88888290053641
4.9299861535932	0.88888302002956
4.9243176412615	0.88888314153108
4.9186621493027	0.88888326497702
4.9130196329072	0.88888339030257
4.9073900474709	0.88888351744203
4.9017733485939	0.88888364632886
4.8961694920790	0.88888377689568
4.8905784339315	0.88888390907430
4.8850001303569	0.88888404279574
4.8794345377604	0.88888417799027
4.8738816127459	0.88888431458739
4.8683413121143	0.88888445251590
4.8628135928629	0.88888459170390
4.8572984121841	0.88888473207879
4.8517957274640	0.88888487356736
4.8463054962819	0.88888501609573
4.8408276764088	0.88888515958943
4.8353622258065	0.88888530397343
