#Parameters = {thARC=0; nARC=2.75; thsub=1; p=1; nSub=2}
#"Wavelength / um"	"T (259) [Real Part]"
#---------------------------------------
14.989622900000	0.88888889310699
14.937342202292	0.88893159719601
14.885424925521	0.88897359037468
14.833867293419	0.88901487825324
14.782665581854	0.88905546642916
14.731816117936	0.88909536048700
14.681315279138	0.88913456599820
14.631159492435	0.88917308852092
14.581345233463	0.88921093359986
14.531869025691	0.88924810676609
14.482727439614	0.88928461353690
14.433917091960	0.88932045941558
14.385434644914	0.88935564989131
14.337276805356	0.88939019043897
14.289440324118	0.88942408651895
14.241921995249	0.88945734357706
14.194718655303	0.88948996704429
14.147827182633	0.88952196233669
14.101244496707	0.88955333485524
14.054967557431	0.88958408998563
14.008993364486	0.88961423309816
13.963318956684	0.88964376954757
13.917941411328	0.88967270467289
13.872857843591	0.88970104379729
13.828065405904	0.88972879222793
13.783561287356	0.88975595525583
13.739342713107	0.88978253815572
13.695406943810	0.88980854618587
13.651751275046	0.88983398458802
13.608373036768	0.88985885858716
13.565269592760	0.88988317339144
13.522438340099	0.88990693419204
13.479876708633	0.88993014616300
13.437582160466	0.88995281446113
13.395552189455	0.88997494422585
13.353784320713	0.88999654057907
13.312276110124	0.89001760862509
13.271025143869	0.89003815345042
13.230029037952	0.89005818012369
13.189285437747	0.89007769369556
13.148792017544	0.89009669919852
13.108546480105	0.89011520164684
13.068546556234	0.89013320603644
13.028790004346	0.89015071734475
12.989274610052	0.89016774053061
12.949998185745	0.89018428053416
12.910958570198	0.89020034227675
12.872153628167	0.89021593066078
12.833581250000	0.89023105056964
12.795239351259	0.89024570686759
12.757125872340	0.89025990439964
12.719238778108	0.89027364799148
12.681576057530	0.89028694244934
12.644135723323	0.89029979255994
12.606915811606	0.89031220309034
12.569914381551	0.89032417878788
12.533129515050	0.89033572438006
12.496559316382	0.89034684457448
12.460201911887	0.89035754405872
12.424055449648	0.89036782750027
12.388118099174	0.89037769954641
12.352388051092	0.89038716482418
12.316863516845	0.89039622794023
12.281542728390	0.89040489348079
12.246423937908	0.89041316601154
12.211505417515	0.89042105007758
12.176785458976	0.89042855020332
12.142262373431	0.89043567089240
12.107934491115	0.89044241662764
12.073800161095	0.89044879187093
12.039857751004	0.89045480106320
12.006105646776	0.89046044862430
11.972542252396	0.89046573895297
11.939165989646	0.89047067642675
11.905975297855	0.89047526540193
11.872968633663	0.89047951021348
11.840144470774	0.89048341517496
11.807501299724	0.89048698457850
11.775037627651	0.89049022269471
11.742751978065	0.89049313377263
11.710642890625	0.89049572203966
11.678708920919	0.89049799170153
11.646948640249	0.89049994694224
11.615360635413	0.89050159192396
11.583943508501	0.89050293078704
11.552695876686	0.89050396764994
11.521616372022	0.89050470660914
11.490703641242	0.89050515173916
11.459956345566	0.89050530709247
11.429373160503	0.89050517669943
11.398952775665	0.89050476456831
11.368693894577	0.89050407468518
11.338595234493	0.89050311101390
11.308655526217	0.89050187749608
11.278873513920	0.89050037805104
11.249247954972	0.89049861657578
11.219777619760	0.89049659694492
11.190461291527	0.89049432301069
11.161297766195	0.89049179860289
11.132285852209	0.89048902752885
11.103424370370	0.89048601357342
11.074712153676	0.89048276049892
11.046148047163	0.89047927204511
11.017730907755	0.89047555192920
10.989459604106	0.89047160384578
10.961333016453	0.89046743146682
10.933350036470	0.89046303844165
10.905509567115	0.89045842839691
10.877810522496	0.89045360493658
10.850251827723	0.89044857164191
10.822832418773	0.89044333207144
10.795551242348	0.89043788976096
10.768407255747	0.89043224822351
10.741399426729	0.89042641094936
10.714526733381	0.89042038140599
10.687788163993	0.89041416303811
10.661182716927	0.89040775926759
10.634709400497	0.89040117349352
10.608367232838	0.89039440909216
10.582155241793	0.89038746941694
10.556072464789	0.89038035779845
10.530117948718	0.89037307754446
10.504290749825	0.89036563193990
10.478589933590	0.89035802424685
10.453014574616	0.89035025770454
10.427563756522	0.89034233552938
10.402236571825	0.89033426091494
10.377032121841	0.89032603703193
10.351949516575	0.89031766702824
10.326987874612	0.89030915402893
10.302146323024	0.89030050113626
10.277423997257	0.89029171142963
10.252820041040	0.89028278796567
10.228333606278	0.89027373377819
10.203963852961	0.89026455187824
10.179709949066	0.89025524525406
10.155571070461	0.89024581687115
10.131546400811	0.89023626967225
10.107635131490	0.89022660657737
10.083836461487	0.89021683048380
10.060149597315	0.89020694426611
10.036573752929	0.89019695077622
10.013108149633	0.89018685284335
9.9897520159947	0.89017665327409
9.9665045877660	0.89016635485239
9.9433651077944	0.89015596033962
9.9203328259431	0.89014547247454
9.8974069990096	0.89013489397337
9.8745868906456	0.89012422752978
9.8518717712783	0.89011347581495
9.8292609180328	0.89010264147758
9.8067536146549	0.89009172714389
9.7843491514360	0.89008073541769
9.7620468251384	0.89006966888040
9.7398459389214	0.89005853009108
9.7177458022690	0.89004732158642
9.6957457309185	0.89003604588084
9.6738450467893	0.89002470546649
9.6520430779137	0.89001330281326
9.6303391583681	0.89000184036886
9.6087326282051	0.88999032055883
9.5872228333866	0.88997874578658
9.5658091257179	0.88996711843342
9.5444908627826	0.88995544085863
9.5232674078780	0.88994371539945
9.5021381299525	0.88993194437117
9.4811024035421	0.88992013006712
9.4601596087094	0.88990827475877
9.4393091309824	0.88989638069571
9.4185503612944	0.88988445010575
9.3978826959248	0.88987248519493
9.3773055364404	0.88986048814756
9.3568182896380	0.88984846112630
9.3364203674868	0.88983640627219
9.3161111870727	0.88982432570466
9.2958901705426	0.88981222152165
9.2757567450495	0.88980009579959
9.2557103426984	0.88978795059350
9.2357504004929	0.88977578793701
9.2158763602828	0.88976360984244
9.1960876687117	0.88975141830079
9.1763837771656	0.88973921528189
9.1567641417227	0.88972700273436
9.1372282231027	0.88971478258573
9.1177754866180	0.88970255674244
9.0984054021244	0.88969032708995
9.0791174439733	0.88967809549275
9.0599110909640	0.88966586379446
9.0407858262967	0.88965363381784
9.0217411375263	0.88964140736488
9.0027765165165	0.88962918621686
8.9838914593947	0.88961697213441
8.9650854665072	0.88960476685752
8.9463580423754	0.88959257210569
8.9277086956522	0.88958038957793
8.9091369390788	0.88956822095281
8.8906422894425	0.88955606788858
8.8722242675348	0.88954393202319
8.8538823981099	0.88953181497437
8.8356162098438	0.88951971833969
8.8174252352941	0.88950764369664
8.7993090108600	0.88949559260265
8.7812670767428	0.88948356659522
8.7632989769073	0.88947156719194
8.7454042590432	0.88945959589059
8.7275824745269	0.88944765416917
8.7098331783847	0.88943574348601
8.6921559292549	0.88942386527982
8.6745502893519	0.88941202096974
8.6570158244297	0.88940021195547
8.6395521037464	0.88938843961725
8.6221587000288	0.88937670531603
8.6048351894374	0.88936501039347
8.5875811515325	0.88935335617206
8.5703961692396	0.88934174395515
8.5532798288160	0.88933017502706
8.5362317198178	0.88931865065312
8.5192514350668	0.88930717207980
8.5023385706183	0.88929574053473
8.4854927257288	0.88928435722677
8.4687135028249	0.88927302334617
8.4520005074711	0.88926174006453
8.4353533483399	0.88925050853498
8.4187716371806	0.88923932989219
8.4022549887892	0.88922820525247
8.3858030209790	0.88921713571387
8.3694153545505	0.88920612235622
8.3530916132627	0.88919516624123
8.3368314238042	0.88918426841257
8.3206344157646	0.88917342989597
8.3045002216066	0.88916265169925
8.2884284766381	0.88915193481244
8.2724188189845	0.88914128020786
8.2564708895621	0.88913068884019
8.2405843320506	0.88912016164656
8.2247587928669	0.88910969954661
8.2089939211391	0.88909930344262
8.1932893686800	0.88908897421956
8.1776447899618	0.88907871274516
8.1620598420909	0.88906851987005
8.1465341847826	0.88905839642777
8.1310674803363	0.88904834323492
8.1156593936113	0.88903836109122
8.1003095920022	0.88902845077958
8.0850177454153	0.88901861306622
8.0697835262450	0.88900884870072
8.0546066093498	0.88899915841615
8.0394866720300	0.88898954292910
8.0244233940043	0.88898000293984
8.0094164573871	0.88897053913232
7.9944655466667	0.88896115217435
7.9795703486825	0.88895184271763
7.9647305526036	0.88894261139783
7.9499458499072	0.88893345883473
7.9352159343568	0.88892438563227
7.9205405019815	0.88891539237866
7.9059192510549	0.88890647964646
7.8913518820742	0.88889764799265
7.8768380977404	0.88888889795877
7.8623776029373	0.88888023007097
7.8479701047120	0.88887164484011
7.8336153122550	0.88886314276186
7.8193129368805	0.88885472431680
7.8050626920073	0.88884638997047
7.7908642931393	0.88883814017351
7.7767174578470	0.88882997536172
7.7626219057483	0.88882189595619
7.7485773584906	0.88881390236333
7.7345835397317	0.88880599497504
7.7206401751223	0.88879817416874
7.7067469922879	0.88879044030749
7.6929037208109	0.88878279374009
7.6791100922131	0.88877523480115
7.6653658399386	0.88876776381122
7.6516706993364	0.88876038107685
7.6380244076433	0.88875308689070
7.6244267039674	0.88874588153163
7.6108773292714	0.88873876526480
7.5973760263558	0.88873173834177
7.5839225398432	0.88872480100056
7.5705166161616	0.88871795346581
7.5571580035291	0.88871119594882
7.5438464519376	0.88870452864765
7.5305817131374	0.88869795174726
7.5173635406219	0.88869146541954
7.5041916896120	0.88868506982348
7.4910659170415	0.88867876510519
7.4779859815415	0.88867255139807
7.4649516434263	0.88866642882285
7.4519626646781	0.88866039748770
7.4390188089330	0.88865445748836
7.4261198414664	0.88864860890819
7.4132655291790	0.88864285181829
7.4004556405826	0.88863718627760
7.3876899457861	0.88863161233300
7.3749682164822	0.88862613001939
7.3622902259332	0.88862073935979
7.3496557489581	0.88861544036547
7.3370645619187	0.88861023303599
7.3245164427071	0.88860511735935
7.3120111707317	0.88860009331206
7.2995485269053	0.88859516085926
7.2871282936315	0.88859031995478
7.2747502547925	0.88858557054128
7.2624141957364	0.88858091255032
7.2501199032648	0.88857634590247
7.2378671656205	0.88857187050740
7.2256557724753	0.88856748626400
7.2134855149182	0.88856319306045
7.2013561854432	0.88855899077432
7.1892675779376	0.88855487927270
7.1772194876706	0.88855085841226
7.1652117112811	0.88854692803938
7.1532440467669	0.88854308799021
7.1413162934731	0.88853933809083
7.1294282520809	0.88853567815727
7.1175797245964	0.88853210799567
7.1057705143399	0.88852862740237
7.0940004259347	0.88852523616395
7.0822692652965	0.88852193405743
7.0705768396226	0.88851872085028
7.0589229573817	0.88851559630055
7.0473074283028	0.88851256015698
7.0357300633654	0.88850961215909
7.0241906747891	0.88850675203727
7.0126890760234	0.88850397951289
7.0012250817375	0.88850129429838
6.9897985078107	0.88849869609735
6.9784091713222	0.88849618460469
6.9670568905415	0.88849375950664
6.9557414849188	0.88849142048092
6.9444627750753	0.88848916719680
6.9332205827937	0.88848699931522
6.9220147310090	0.88848491648889
6.9108450437990	0.88848291836236
6.8997113463751	0.88848100457214
6.8886134650735	0.88847917474681
6.8775512273457	0.88847742850708
6.8665244617499	0.88847576546592
6.8555329979419	0.88847418522864
6.8445766666667	0.88847268739302
6.8336552997493	0.88847127154934
6.8227687300865	0.88846993728055
6.8119167916383	0.88846868416232
6.8010993194192	0.88846751176318
6.7903161494904	0.88846641964455
6.7795671189507	0.88846540736090
6.7688520659291	0.88846447445984
6.7581708295762	0.88846362048217
6.7475232500563	0.88846284496202
6.7369091685393	0.88846214742695
6.7263284271932	0.88846152739800
6.7157808691756	0.88846098438985
6.7052663386267	0.88846051791085
6.6947846806610	0.88846012746317
6.6843357413601	0.88845981254287
6.6739193677649	0.88845957264000
6.6635354078684	0.88845940723869
6.6531837106081	0.88845931581726
6.6428641258586	0.88845929784831
6.6325765044248	0.88845935279879
6.6223206980340	0.88845948013014
6.6120965593295	0.88845967929834
6.6019039418630	0.88845994975405
6.5917427000879	0.88846029094266
6.5816126893524	0.88846070230441
6.5715137658922	0.88846118327449
6.5614457868243	0.88846173328310
6.5514086101399	0.88846235175558
6.5414020946978	0.88846303811249
6.5314261002179	0.88846379176969
6.5214804872743	0.88846461213847
6.5115651172893	0.88846549862560
6.5016798525266	0.88846645063344
6.4918245560849	0.88846746756004
6.4819990918919	0.88846854879923
6.4722033246978	0.88846969374070
6.4624371200690	0.88847090177010
6.4527003443823	0.88847217226914
6.4429928648184	0.88847350461568
6.4333145493562	0.88847489818378
6.4236652667667	0.88847635234386
6.4140448866068	0.88847786646275
6.4044532792138	0.88847943990377
6.3948903156997	0.88848107202685
6.3853558679446	0.88848276218861
6.3758498085921	0.88848450974243
6.3663720110427	0.88848631403857
6.3569223494487	0.88848817442425
6.3475006987084	0.88849009024371
6.3381069344609	0.88849206083836
6.3287409330800	0.88849408554678
6.3194025716695	0.88849616370492
6.3100917280572	0.88849829464608
6.3008082807902	0.88850047770106
6.2915521091291	0.88850271219825
6.2823230930427	0.88850499746367
6.2731211132036	0.88850733282110
6.2639460509820	0.88850971759216
6.2547977884415	0.88851215109639
6.2456762083333	0.88851463265131
6.2365811940919	0.88851716157257
6.2275126298297	0.88851973717395
6.2184704003319	0.88852235876754
6.2094543910522	0.88852502566374
6.2004644881075	0.88852773717139
6.1915005782734	0.88853049259786
6.1825625489792	0.88853329124909
6.1736502883031	0.88853613242973
6.1647636849681	0.88853901544317
6.1559026283368	0.88854193959166
6.1470670084068	0.88854490417640
6.1382567158067	0.88854790849756
6.1294716417910	0.88855095185443
6.1207116782360	0.88855403354549
6.1119767176351	0.88855715286844
6.1032666530945	0.88856030912035
6.0945813783289	0.88856350159769
6.0859207876573	0.88856672959644
6.0772847759984	0.88856999241214
6.0686732388664	0.88857328934002
6.0600860723671	0.88857661967502
6.0515231731934	0.88857998271189
6.0429844386212	0.88858337774531
6.0344697665056	0.88858680406989
6.0259790552764	0.88859026098032
6.0175122039342	0.88859374777139
6.0090691120465	0.88859726373813
6.0006496797438	0.88860080817581
5.9922538077154	0.88860438038009
5.9838813972056	0.88860797964703
5.9755323500100	0.88861160527323
5.9672065684713	0.88861525655585
5.9589039554760	0.88861893279271
5.9506244144502	0.88862263328237
5.9423678493558	0.88862635732418
5.9341341646873	0.88863010421839
5.9259232654675	0.88863387326617
5.9177350572444	0.88863766376975
5.9095694460871	0.88864147503243
5.9014263385827	0.88864530635869
5.8933056418321	0.88864915705424
5.8852072634472	0.88865302642609
5.8771311115468	0.88865691378267
5.8690770947533	0.88866081843382
5.8610451221896	0.88866473969091
5.8530351034752	0.88866867686691
5.8450469487229	0.88867262927644
5.8370805685358	0.88867659623585
5.8291358740035	0.88868057706328
5.8212127766990	0.88868457107873
5.8133111886756	0.88868857760414
5.8054310224632	0.88869259596343
5.7975721910656	0.88869662548260
5.7897346079567	0.88870066548976
5.7819181870781	0.88870471531522
5.7741228428351	0.88870877429154
5.7663484900942	0.88871284175362
5.7585950441798	0.88871691703873
5.7508624208709	0.88872099948659
5.7431505363985	0.88872508843943
5.7354593074421	0.88872918324207
5.7277886511272	0.88873328324195
5.7201384850219	0.88873738778921
5.7125087271341	0.88874149623676
5.7048992959087	0.88874560794032
5.6973101102242	0.88874972225849
5.6897410893908	0.88875383855282
5.6821921531463	0.88875795618784
5.6746632216544	0.88876207453115
5.6671542155009	0.88876619295347
5.6596650556919	0.88877031082869
5.6521956636501	0.88877442753392
5.6447459612126	0.88877854244956
5.6373158706281	0.88878265495937
5.6299053145540	0.88878676445050
5.6225142160540	0.88879087031354
5.6151424985952	0.88879497194262
5.6077900860456	0.88879906873540
5.6004569026714	0.88880316009318
5.5931428731343	0.88880724542092
5.5858479224893	0.88881132412731
5.5785719761816	0.88881539562482
5.5713149600446	0.88881945932973
5.5640768002970	0.88882351466221
5.5568574235403	0.88882756104636
5.5496567567568	0.88883159791026
5.5424747273063	0.88883562468600
5.5353112629247	0.88883964080978
5.5281662917204	0.88884364572191
5.5210397421731	0.88884763886686
5.5139315431304	0.88885161969335
5.5068416238060	0.88885558765435
5.4997699137773	0.88885954220715
5.4927163429828	0.88886348281341
5.4856808417200	0.88886740893918
5.4786633406433	0.88887132005498
5.4716637707611	0.88887521563581
5.4646820634342	0.88887909516121
5.4577181503732	0.88888295811533
5.4507719636364	0.88888680398691
5.4438434356274	0.88889063226938
5.4369324990932	0.88889444246087
5.4300390871219	0.88889823406426
5.4231631331404	0.88890200658723
5.4163045709124	0.88890575954227
5.4094633345363	0.88890949244678
5.4026393584430	0.88891320482302
5.3958325773938	0.88891689619823
5.3890429264785	0.88892056610463
5.3822703411131	0.88892421407944
5.3755147570378	0.88892783966498
5.3687761103152	0.88893144240863
5.3620543373278	0.88893502186291
5.3553493747767	0.88893857758550
5.3486611596789	0.88894210913929
5.3419896293656	0.88894561609240
5.3353347214807	0.88894909801821
5.3286963739780	0.88895255449541
5.3220745251198	0.88895598510800
5.3154691134752	0.88895938944537
5.3088800779175	0.88896276710228
5.3023073576229	0.88896611767892
5.2957508920685	0.88896944078094
5.2892106210303	0.88897273601947
5.2826864845815	0.88897600301114
5.2761784230905	0.88897924137812
5.2696863772192	0.88898245074817
5.2632102879213	0.88898563075461
5.2567500964405	0.88898878103640
5.2503057443082	0.88899190123814
5.2438771733427	0.88899499101009
5.2374643256464	0.88899805000823
5.2310671436050	0.88900107789423
5.2246855698850	0.88900407433551
5.2183195474326	0.88900703900526
5.2119690194715	0.88900997158245
5.2056339295016	0.88901287175186
5.1993142212973	0.88901573920410
5.1930098389052	0.88901857363563
5.1867207266436	0.88902137474877
5.1804468290997	0.88902414225173
5.1741880911288	0.88902687585864
5.1679444578521	0.88902957528954
5.1617158746556	0.88903224027041
5.1555022871883	0.88903487053320
5.1493036413604	0.88903746581582
5.1431198833419	0.88904002586218
5.1369509595613	0.88904255042219
5.1307968167037	0.88904503925179
5.1246574017094	0.88904749211293
5.1185326617722	0.88904990877363
5.1124225443383	0.88905228900795
5.1063269971044	0.88905463259603
5.1002459680163	0.88905693932409
5.0941794052676	0.88905920898445
5.0881272572980	0.88906144137552
5.0820894727920	0.88906363630181
5.0760660006773	0.88906579357399
5.0700567901235	0.88906791300882
5.0640617905405	0.88906999442923
5.0580809515775	0.88907203766425
5.0521142231210	0.88907404254911
5.0461615552937	0.88907600892517
5.0402228984533	0.88907793663994
5.0342982031906	0.88907982554711
5.0283874203287	0.88908167550656
5.0224905009214	0.88908348638431
5.0166073962517	0.88908525805257
5.0107380578305	0.88908699038972
5.0048824373957	0.88908868328034
4.9990404869101	0.88909033661518
4.9932121585610	0.88909195029116
4.9873974047579	0.88909352421140
4.9815961781323	0.88909505828519
4.9758084315353	0.88909655242799
4.9700341180371	0.88909800656147
4.9642731909256	0.88909942061342
4.9585256037049	0.88910079451786
4.9527913100942	0.88910212821493
4.9470702640264	0.88910342165097
4.9413624196473	0.88910467477844
4.9356677313138	0.88910588755598
4.9299861535932	0.88910705994837
4.9243176412615	0.88910819192651
4.9186621493027	0.88910928346746
4.9130196329072	0.88911033455438
4.9073900474709	0.88911134517656
4.9017733485939	0.88911231532938
4.8961694920790	0.88911324501432
4.8905784339315	0.88911413423896
4.8850001303569	0.88911498301692
4.8794345377604	0.88911579136790
4.8738816127459	0.88911655931767
4.8683413121143	0.88911728689799
4.8628135928629	0.88911797414669
4.8572984121841	0.88911862110757
4.8517957274640	0.88911922783045
4.8463054962819	0.88911979437110
4.8408276764088	0.88912032079129
4.8353622258065	0.88912080715871
