#Parameters = {thARC=0; nARC=2.5; thsub=1; p=1; nSub=2}
#"Wavelength / um"	"T (253) [Real Part]"
#---------------------------------------
14.989622900000	0.88888889300743
14.937342202292	0.88893159709645
14.885424925521	0.88897359027512
14.833867293419	0.88901487815368
14.782665581854	0.88905546632961
14.731816117936	0.88909536038746
14.681315279138	0.88913456589868
14.631159492435	0.88917308842142
14.581345233463	0.88921093350038
14.531869025691	0.88924810666665
14.482727439614	0.88928461343748
14.433917091960	0.88932045931620
14.385434644914	0.88935564979198
14.337276805356	0.88939019033967
14.289440324118	0.88942408641971
14.241921995249	0.88945734347787
14.194718655303	0.88948996694515
14.147827182633	0.88952196223762
14.101244496707	0.88955333475623
14.054967557431	0.88958408988669
14.008993364486	0.88961423299929
13.963318956684	0.88964376944878
13.917941411328	0.88967270457418
13.872857843591	0.88970104369866
13.828065405904	0.88972879212938
13.783561287356	0.88975595515738
13.739342713107	0.88978253805736
13.695406943810	0.88980854608762
13.651751275046	0.88983398448987
13.608373036768	0.88985885848911
13.565269592760	0.88988317329350
13.522438340099	0.88990693409422
13.479876708633	0.88993014606530
13.437582160466	0.88995281436355
13.395552189455	0.88997494412839
13.353784320713	0.88999654048175
13.312276110124	0.89001760852790
13.271025143869	0.89003815335336
13.230029037952	0.89005818002678
13.189285437747	0.89007769359879
13.148792017544	0.89009669910190
13.108546480105	0.89011520155038
13.068546556234	0.89013320594013
13.028790004346	0.89015071724860
12.989274610052	0.89016774043462
12.949998185745	0.89018428043835
12.910958570198	0.89020034218110
12.872153628167	0.89021593056530
12.833581250000	0.89023105047434
12.795239351259	0.89024570677247
12.757125872340	0.89025990430471
12.719238778108	0.89027364789674
12.681576057530	0.89028694235480
12.644135723323	0.89029979246559
12.606915811606	0.89031220299619
12.569914381551	0.89032417869393
12.533129515050	0.89033572428632
12.496559316382	0.89034684448095
12.460201911887	0.89035754396541
12.424055449648	0.89036782740717
12.388118099174	0.89037769945354
12.352388051092	0.89038716473153
12.316863516845	0.89039622784781
12.281542728390	0.89040489338859
12.246423937908	0.89041316591958
12.211505417515	0.89042104998586
12.176785458976	0.89042855011184
12.142262373431	0.89043567080117
12.107934491115	0.89044241653666
12.073800161095	0.89044879178020
12.039857751004	0.89045480097272
12.006105646776	0.89046044853408
11.972542252396	0.89046573886301
11.939165989646	0.89047067633705
11.905975297855	0.89047526531251
11.872968633663	0.89047951012433
11.840144470774	0.89048341508609
11.807501299724	0.89048698448990
11.775037627651	0.89049022260639
11.742751978065	0.89049313368459
11.710642890625	0.89049572195191
11.678708920919	0.89049799161408
11.646948640249	0.89049994685507
11.615360635413	0.89050159183709
11.583943508501	0.89050293070048
11.552695876686	0.89050396756367
11.521616372022	0.89050470652318
11.490703641242	0.89050515165352
11.459956345566	0.89050530700713
11.429373160503	0.89050517661442
11.398952775665	0.89050476448361
11.368693894577	0.89050407460080
11.338595234493	0.89050311092985
11.308655526217	0.89050187741235
11.278873513920	0.89050037796765
11.249247954972	0.89049861649272
11.219777619760	0.89049659686220
11.190461291527	0.89049432292831
11.161297766195	0.89049179852085
11.132285852209	0.89048902744715
11.103424370370	0.89048601349207
11.074712153676	0.89048276041792
11.046148047163	0.89047927196447
11.017730907755	0.89047555184892
10.989459604106	0.89047160376586
10.961333016453	0.89046743138726
10.933350036470	0.89046303836245
10.905509567115	0.89045842831808
10.877810522496	0.89045360485812
10.850251827723	0.89044857156382
10.822832418773	0.89044333199372
10.795551242348	0.89043788968362
10.768407255747	0.89043224814655
10.741399426729	0.89042641087279
10.714526733381	0.89042038132981
10.687788163993	0.89041416296231
10.661182716927	0.89040775919219
10.634709400497	0.89040117341852
10.608367232838	0.89039440901755
10.582155241793	0.89038746934273
10.556072464789	0.89038035772464
10.530117948718	0.89037307747106
10.504290749825	0.89036563186691
10.478589933590	0.89035802417426
10.453014574616	0.89035025763237
10.427563756522	0.89034233545762
10.402236571825	0.89033426084359
10.377032121841	0.89032603696100
10.351949516575	0.89031766695773
10.326987874612	0.89030915395885
10.302146323024	0.89030050106660
10.277423997257	0.89029171136040
10.252820041040	0.89028278789687
10.228333606278	0.89027373370983
10.203963852961	0.89026455181031
10.179709949066	0.89025524518657
10.155571070461	0.89024581680410
10.131546400811	0.89023626960565
10.107635131490	0.89022660651121
10.083836461487	0.89021683041808
10.060149597315	0.89020694420085
10.036573752929	0.89019695071140
10.013108149633	0.89018685277899
9.9897520159947	0.89017665321018
9.9665045877660	0.89016635478894
9.9433651077944	0.89015596027663
9.9203328259431	0.89014547241201
9.8974069990096	0.89013489391130
9.8745868906456	0.89012422746817
9.8518717712783	0.89011347575382
9.8292609180328	0.89010264141691
9.8067536146549	0.89009172708369
9.7843491514360	0.89008073535796
9.7620468251384	0.89006966882115
9.7398459389214	0.89005853003230
9.7177458022690	0.89004732152812
9.6957457309185	0.89003604582302
9.6738450467893	0.89002470540915
9.6520430779137	0.89001330275640
9.6303391583681	0.89000184031249
9.6087326282051	0.88999032050295
9.5872228333866	0.88997874573119
9.5658091257179	0.88996711837852
9.5444908627826	0.88995544080422
9.5232674078780	0.88994371534554
9.5021381299525	0.88993194431775
9.4811024035421	0.88992013001420
9.4601596087094	0.88990827470634
9.4393091309824	0.88989638064379
9.4185503612944	0.88988445005433
9.3978826959248	0.88987248514401
9.3773055364404	0.88986048809715
9.3568182896380	0.88984846107640
9.3364203674868	0.88983640622279
9.3161111870727	0.88982432565577
9.2958901705426	0.88981222147327
9.2757567450495	0.88980009575172
9.2557103426984	0.88978795054615
9.2357504004929	0.88977578789018
9.2158763602828	0.88976360979612
9.1960876687117	0.88975141825499
9.1763837771656	0.88973921523661
9.1567641417227	0.88972700268960
9.1372282231027	0.88971478254149
9.1177754866180	0.88970255669872
9.0984054021244	0.88969032704675
9.0791174439733	0.88967809545008
9.0599110909640	0.88966586375232
9.0407858262967	0.88965363377622
9.0217411375263	0.88964140732380
9.0027765165165	0.88962918617631
8.9838914593947	0.88961697209438
8.9650854665072	0.88960476681803
8.9463580423754	0.88959257206674
8.9277086956522	0.88958038953950
8.9091369390788	0.88956822091492
8.8906422894425	0.88955606785123
8.8722242675348	0.88954393198637
8.8538823981099	0.88953181493810
8.8356162098438	0.88951971830396
8.8174252352941	0.88950764366144
8.7993090108600	0.88949559256799
8.7812670767428	0.88948356656111
8.7632989769073	0.88947156715837
8.7454042590432	0.88945959585756
8.7275824745269	0.88944765413669
8.7098331783847	0.88943574345408
8.6921559292549	0.88942386524843
8.6745502893519	0.88941202093891
8.6570158244297	0.88940021192517
8.6395521037464	0.88938843958751
8.6221587000288	0.88937670528684
8.6048351894374	0.88936501036483
8.5875811515325	0.88935335614397
8.5703961692396	0.88934174392761
8.5532798288160	0.88933017500007
8.5362317198178	0.88931865062669
8.5192514350668	0.88930717205392
8.5023385706183	0.88929574050940
8.4854927257288	0.88928435720200
8.4687135028249	0.88927302332195
8.4520005074711	0.88926174004087
8.4353533483399	0.88925050851188
8.4187716371806	0.88923932986964
8.4022549887892	0.88922820523048
8.3858030209790	0.88921713569244
8.3694153545505	0.88920612233534
8.3530916132627	0.88919516622091
8.3368314238042	0.88918426839281
8.3206344157646	0.88917342987677
8.3045002216066	0.88916265168061
8.2884284766381	0.88915193479436
8.2724188189845	0.88914128019034
8.2564708895621	0.88913068882323
8.2405843320506	0.88912016163015
8.2247587928669	0.88910969953077
8.2089939211391	0.88909930342734
8.1932893686800	0.88908897420484
8.1776447899618	0.88907871273100
8.1620598420909	0.88906851985645
8.1465341847826	0.88905839641473
8.1310674803363	0.88904834322244
8.1156593936113	0.88903836107930
8.1003095920022	0.88902845076822
8.0850177454153	0.88901861305542
8.0697835262450	0.88900884869049
8.0546066093498	0.88899915840648
8.0394866720300	0.88898954292000
8.0244233940043	0.88898000293129
8.0094164573871	0.88897053912434
7.9944655466667	0.88896115216693
7.9795703486825	0.88895184271076
7.9647305526036	0.88894261139153
7.9499458499072	0.88893345882899
7.9352159343568	0.88892438562709
7.9205405019815	0.88891539237405
7.9059192510549	0.88890647964240
7.8913518820742	0.88889764798915
7.8768380977404	0.88888889795583
7.8623776029373	0.88888023006859
7.8479701047120	0.88887164483829
7.8336153122550	0.88886314276061
7.8193129368805	0.88885472431610
7.8050626920073	0.88884638997033
7.7908642931393	0.88883814017392
7.7767174578470	0.88882997536270
7.7626219057483	0.88882189595772
7.7485773584906	0.88881390236542
7.7345835397317	0.88880599497769
7.7206401751223	0.88879817417194
7.7067469922879	0.88879044031125
7.6929037208109	0.88878279374440
7.6791100922131	0.88877523480602
7.6653658399386	0.88876776381665
7.6516706993364	0.88876038108283
7.6380244076433	0.88875308689723
7.6244267039674	0.88874588153872
7.6108773292714	0.88873876527244
7.5973760263558	0.88873173834995
7.5839225398432	0.88872480100930
7.5705166161616	0.88871795347510
7.5571580035291	0.88871119595865
7.5438464519376	0.88870452865804
7.5305817131374	0.88869795175819
7.5173635406219	0.88869146543102
7.5041916896120	0.88868506983550
7.4910659170415	0.88867876511777
7.4779859815415	0.88867255141119
7.4649516434263	0.88866642883651
7.4519626646781	0.88866039750191
7.4390188089330	0.88865445750311
7.4261198414664	0.88864860892348
7.4132655291790	0.88864285183412
7.4004556405826	0.88863718629397
7.3876899457861	0.88863161234991
7.3749682164822	0.88862613003684
7.3622902259332	0.88862073937778
7.3496557489581	0.88861544038399
7.3370645619187	0.88861023305504
7.3245164427071	0.88860511737893
7.3120111707317	0.88860009333218
7.2995485269053	0.88859516087991
7.2871282936315	0.88859031997596
7.2747502547925	0.88858557056299
7.2624141957364	0.88858091257256
7.2501199032648	0.88857634592523
7.2378671656205	0.88857187053070
7.2256557724753	0.88856748628782
7.2134855149182	0.88856319308479
7.2013561854432	0.88855899079918
7.1892675779376	0.88855487929808
7.1772194876706	0.88855085843817
7.1652117112811	0.88854692806580
7.1532440467669	0.88854308801716
7.1413162934731	0.88853933811829
7.1294282520809	0.88853567818525
7.1175797245964	0.88853210802417
7.1057705143399	0.88852862743137
7.0940004259347	0.88852523619347
7.0822692652965	0.88852193408746
7.0705768396226	0.88851872088081
7.0589229573817	0.88851559633159
7.0473074283028	0.88851256018853
7.0357300633654	0.88850961219114
7.0241906747891	0.88850675206983
7.0126890760234	0.88850397954594
7.0012250817375	0.88850129433193
6.9897985078107	0.88849869613140
6.9784091713222	0.88849618463924
6.9670568905415	0.88849375954169
6.9557414849188	0.88849142051646
6.9444627750753	0.88848916723283
6.9332205827937	0.88848699935174
6.9220147310090	0.88848491652590
6.9108450437990	0.88848291839985
6.8997113463751	0.88848100461012
6.8886134650735	0.88847917478527
6.8775512273457	0.88847742854602
6.8665244617499	0.88847576550535
6.8555329979419	0.88847418526855
6.8445766666667	0.88847268743340
6.8336552997493	0.88847127159020
6.8227687300865	0.88846993732188
6.8119167916383	0.88846868420413
6.8010993194192	0.88846751180545
6.7903161494904	0.88846641968729
6.7795671189507	0.88846540740411
6.7688520659291	0.88846447450351
6.7581708295762	0.88846362052630
6.7475232500563	0.88846284500662
6.7369091685393	0.88846214747201
6.7263284271932	0.88846152744352
6.7157808691756	0.88846098443582
6.7052663386267	0.88846051795727
6.6947846806610	0.88846012751004
6.6843357413601	0.88845981259019
6.6739193677649	0.88845957268777
6.6635354078684	0.88845940728691
6.6531837106081	0.88845931586592
6.6428641258586	0.88845929789741
6.6325765044248	0.88845935284833
6.6223206980340	0.88845948018011
6.6120965593295	0.88845967934875
6.6019039418630	0.88845994980490
6.5917427000879	0.88846029099394
6.5816126893524	0.88846070235612
6.5715137658922	0.88846118332662
6.5614457868243	0.88846173333565
6.5514086101399	0.88846235180856
6.5414020946978	0.88846303816589
6.5314261002179	0.88846379182351
6.5214804872743	0.88846461219271
6.5115651172893	0.88846549868025
6.5016798525266	0.88846645068850
6.4918245560849	0.88846746761551
6.4819990918919	0.88846854885511
6.4722033246978	0.88846969379698
6.4624371200690	0.88847090182679
6.4527003443823	0.88847217232623
6.4429928648184	0.88847350467316
6.4333145493562	0.88847489824166
6.4236652667667	0.88847635240214
6.4140448866068	0.88847786652142
6.4044532792138	0.88847943996283
6.3948903156997	0.88848107208629
6.3853558679446	0.88848276224843
6.3758498085921	0.88848450980264
6.3663720110427	0.88848631409916
6.3569223494487	0.88848817448521
6.3475006987084	0.88849009030505
6.3381069344609	0.88849206090007
6.3287409330800	0.88849408560887
6.3194025716695	0.88849616376737
6.3100917280572	0.88849829470889
6.3008082807902	0.88850047776424
6.2915521091291	0.88850271226178
6.2823230930427	0.88850499752756
6.2731211132036	0.88850733288535
6.2639460509820	0.88850971765676
6.2547977884415	0.88851215116134
6.2456762083333	0.88851463271661
6.2365811940919	0.88851716163821
6.2275126298297	0.88851973723994
6.2184704003319	0.88852235883386
6.2094543910522	0.88852502573040
6.2004644881075	0.88852773723839
6.1915005782734	0.88853049266518
6.1825625489792	0.88853329131674
6.1736502883031	0.88853613249771
6.1647636849681	0.88853901551147
6.1559026283368	0.88854193966029
6.1470670084068	0.88854490424534
6.1382567158067	0.88854790856682
6.1294716417910	0.88855095192400
6.1207116782360	0.88855403361537
6.1119767176351	0.88855715293863
6.1032666530945	0.88856030919084
6.0945813783289	0.88856350166849
6.0859207876573	0.88856672966753
6.0772847759984	0.88856999248354
6.0686732388664	0.88857328941171
6.0600860723671	0.88857661974700
6.0515231731934	0.88857998278416
6.0429844386212	0.88858337781786
6.0344697665056	0.88858680414273
6.0259790552764	0.88859026105343
6.0175122039342	0.88859374784479
6.0090691120465	0.88859726381180
6.0006496797438	0.88860080824975
5.9922538077154	0.88860438045429
5.9838813972056	0.88860797972150
5.9755323500100	0.88861160534796
5.9672065684713	0.88861525663084
5.9589039554760	0.88861893286796
5.9506244144502	0.88862263335787
5.9423678493558	0.88862635739994
5.9341341646873	0.88863010429439
5.9259232654675	0.88863387334242
5.9177350572444	0.88863766384625
5.9095694460871	0.88864147510917
5.9014263385827	0.88864530643566
5.8933056418321	0.88864915713144
5.8852072634472	0.88865302650353
5.8771311115468	0.88865691386033
5.8690770947533	0.88866081851170
5.8610451221896	0.88866473976902
5.8530351034752	0.88866867694524
5.8450469487229	0.88867262935498
5.8370805685358	0.88867659631460
5.8291358740035	0.88868057714224
5.8212127766990	0.88868457115790
5.8133111886756	0.88868857768352
5.8054310224632	0.88869259604301
5.7975721910656	0.88869662556238
5.7897346079567	0.88870066556973
5.7819181870781	0.88870471539538
5.7741228428351	0.88870877437189
5.7663484900942	0.88871284183416
5.7585950441798	0.88871691711945
5.7508624208709	0.88872099956748
5.7431505363985	0.88872508852050
5.7354593074421	0.88872918332332
5.7277886511272	0.88873328332337
5.7201384850219	0.88873738787080
5.7125087271341	0.88874149631851
5.7048992959087	0.88874560802223
5.6973101102242	0.88874972234056
5.6897410893908	0.88875383863504
5.6821921531463	0.88875795627021
5.6746632216544	0.88876207461367
5.6671542155009	0.88876619303614
5.6596650556919	0.88877031091150
5.6521956636501	0.88877442761686
5.6447459612126	0.88877854253264
5.6373158706281	0.88878265504259
5.6299053145540	0.88878676453384
5.6225142160540	0.88879087039701
5.6151424985952	0.88879497202621
5.6077900860456	0.88879906881911
5.6004569026714	0.88880316017701
5.5931428731343	0.88880724550486
5.5858479224893	0.88881132421137
5.5785719761816	0.88881539570898
5.5713149600446	0.88881945941400
5.5640768002970	0.88882351474658
5.5568574235403	0.88882756113083
5.5496567567568	0.88883159799482
5.5424747273063	0.88883562477065
5.5353112629247	0.88883964089452
5.5281662917204	0.88884364580673
5.5210397421731	0.88884763895177
5.5139315431304	0.88885161977833
5.5068416238060	0.88885558773941
5.4997699137773	0.88885954229228
5.4927163429828	0.88886348289861
5.4856808417200	0.88886740902445
5.4786633406433	0.88887132014030
5.4716637707611	0.88887521572119
5.4646820634342	0.88887909524666
5.4577181503732	0.88888295820083
5.4507719636364	0.88888680407246
5.4438434356274	0.88889063235497
5.4369324990932	0.88889444254650
5.4300390871219	0.88889823414993
5.4231631331404	0.88890200667294
5.4163045709124	0.88890575962802
5.4094633345363	0.88890949253255
5.4026393584430	0.88891320490882
5.3958325773938	0.88891689628405
5.3890429264785	0.88892056619047
5.3822703411131	0.88892421416531
5.3755147570378	0.88892783975086
5.3687761103152	0.88893144249451
5.3620543373278	0.88893502194880
5.3553493747767	0.88893857767139
5.3486611596789	0.88894210922519
5.3419896293656	0.88894561617830
5.3353347214807	0.88894909810410
5.3286963739780	0.88895255458129
5.3220745251198	0.88895598519387
5.3154691134752	0.88895938953123
5.3088800779175	0.88896276718812
5.3023073576229	0.88896611776474
5.2957508920685	0.88896944086673
5.2892106210303	0.88897273610523
5.2826864845815	0.88897600309686
5.2761784230905	0.88897924146381
5.2696863772192	0.88898245083382
5.2632102879213	0.88898563084022
5.2567500964405	0.88898878112197
5.2503057443082	0.88899190132366
5.2438771733427	0.88899499109557
5.2374643256464	0.88899805009365
5.2310671436050	0.88900107797959
5.2246855698850	0.88900407442081
5.2183195474326	0.88900703909049
5.2119690194715	0.88900997166762
5.2056339295016	0.88901287183696
5.1993142212973	0.88901573928913
5.1930098389052	0.88901857372058
5.1867207266436	0.88902137483363
5.1804468290997	0.88902414233652
5.1741880911288	0.88902687594334
5.1679444578521	0.88902957537415
5.1617158746556	0.88903224035492
5.1555022871883	0.88903487061762
5.1493036413604	0.88903746590014
5.1431198833419	0.88904002594639
5.1369509595613	0.88904255050630
5.1307968167037	0.88904503933579
5.1246574017094	0.88904749219682
5.1185326617722	0.88904990885740
5.1124225443383	0.88905228909160
5.1063269971044	0.88905463267957
5.1002459680163	0.88905693940751
5.0941794052676	0.88905920906774
5.0881272572980	0.88906144145867
5.0820894727920	0.88906363638483
5.0760660006773	0.88906579365687
5.0700567901235	0.88906791309157
5.0640617905405	0.88906999451182
5.0580809515775	0.88907203774671
5.0521142231210	0.88907404263141
5.0461615552937	0.88907600900731
5.0402228984533	0.88907793672193
5.0342982031906	0.88907982562895
5.0283874203287	0.88908167558823
5.0224905009214	0.88908348646581
5.0166073962517	0.88908525813390
5.0107380578305	0.88908699047089
5.0048824373957	0.88908868336134
4.9990404869101	0.88909033669600
4.9932121585610	0.88909195037180
4.9873974047579	0.88909352429185
4.9815961781323	0.88909505836545
4.9758084315353	0.88909655250807
4.9700341180371	0.88909800664134
4.9642731909256	0.88909942069311
4.9585256037049	0.88910079459734
4.9527913100942	0.88910212829421
4.9470702640264	0.88910342173004
4.9413624196473	0.88910467485731
4.9356677313138	0.88910588763464
4.9299861535932	0.88910706002681
4.9243176412615	0.88910819200474
4.9186621493027	0.88910928354547
4.9130196329072	0.88911033463217
4.9073900474709	0.88911134525412
4.9017733485939	0.88911231540671
4.8961694920790	0.88911324509142
4.8905784339315	0.88911413431582
4.8850001303569	0.88911498309354
4.8794345377604	0.88911579144428
4.8738816127459	0.88911655939381
4.8683413121143	0.88911728697389
4.8628135928629	0.88911797422233
4.8572984121841	0.88911862118296
4.8517957274640	0.88911922790558
4.8463054962819	0.88911979444598
4.8408276764088	0.88912032086591
4.8353622258065	0.88912080723306
