#Parameters = {thARC=0; nARC=1.25; thsub=1; p=1; nSub=2.25}
#"Wavelength / um"	"T (277) [Real Part]"
#---------------------------------------
14.989622900000	0.85207100774966
14.937342202292	0.85214352757322
14.885424925521	0.85221490035664
14.833867293419	0.85228513424528
14.782665581854	0.85235423737980
14.731816117936	0.85242221789573
14.681315279138	0.85248908392302
14.631159492435	0.85255484358568
14.581345233463	0.85261950500135
14.531869025691	0.85268307628090
14.482727439614	0.85274556552800
14.433917091960	0.85280698083877
14.385434644914	0.85286733030133
14.337276805356	0.85292662199543
14.289440324118	0.85298486399208
14.241921995249	0.85304206435311
14.194718655303	0.85309823113082
14.147827182633	0.85315337236759
14.101244496707	0.85320749609549
14.054967557431	0.85326061033591
14.008993364486	0.85331272309917
13.963318956684	0.85336384238418
13.917941411328	0.85341397617803
13.872857843591	0.85346313245566
13.828065405904	0.85351131917946
13.783561287356	0.85355854429894
13.739342713107	0.85360481575035
13.695406943810	0.85365014145635
13.651751275046	0.85369452932564
13.608373036768	0.85373798725259
13.565269592760	0.85378052311694
13.522438340099	0.85382214478344
13.479876708633	0.85386286010147
13.437582160466	0.85390267690478
13.395552189455	0.85394160301108
13.353784320713	0.85397964622176
13.312276110124	0.85401681432152
13.271025143869	0.85405311507809
13.230029037952	0.85408855624188
13.189285437747	0.85412314554567
13.148792017544	0.85415689070426
13.108546480105	0.85418979941423
13.068546556234	0.85422187935356
13.028790004346	0.85425313818136
12.989274610052	0.85428358353756
12.949998185745	0.85431322304259
12.910958570198	0.85434206429711
12.872153628167	0.85437011488170
12.833581250000	0.85439738235657
12.795239351259	0.85442387426128
12.757125872340	0.85444959811443
12.719238778108	0.85447456141342
12.681576057530	0.85449877163413
12.644135723323	0.85452223623065
12.606915811606	0.85454496263504
12.569914381551	0.85456695825702
12.533129515050	0.85458823048373
12.496559316382	0.85460878667944
12.460201911887	0.85462863418532
12.424055449648	0.85464778031916
12.388118099174	0.85466623237513
12.352388051092	0.85468399762350
12.316863516845	0.85470108331044
12.281542728390	0.85471749665773
12.246423937908	0.85473324486253
12.211505417515	0.85474833509716
12.176785458976	0.85476277450885
12.142262373431	0.85477657021949
12.107934491115	0.85478972932544
12.073800161095	0.85480225889724
12.039857751004	0.85481416597946
12.006105646776	0.85482545759044
11.972542252396	0.85483614072207
11.939165989646	0.85484622233956
11.905975297855	0.85485570938130
11.872968633663	0.85486460875855
11.840144470774	0.85487292735532
11.807501299724	0.85488067202810
11.775037627651	0.85488784960574
11.742751978065	0.85489446688915
11.710642890625	0.85490053065121
11.678708920919	0.85490604763649
11.646948640249	0.85491102456115
11.615360635413	0.85491546811266
11.583943508501	0.85491938494971
11.552695876686	0.85492278170195
11.521616372022	0.85492566496989
11.490703641242	0.85492804132466
11.459956345566	0.85492991730789
11.429373160503	0.85493129943149
11.398952775665	0.85493219417757
11.368693894577	0.85493260799817
11.338595234493	0.85493254731520
11.308655526217	0.85493201852023
11.278873513920	0.85493102797434
11.249247954972	0.85492958200800
11.219777619760	0.85492768692088
11.190461291527	0.85492534898174
11.161297766195	0.85492257442830
11.132285852209	0.85491936946705
11.103424370370	0.85491574027314
11.074712153676	0.85491169299029
11.046148047163	0.85490723373059
11.017730907755	0.85490236857441
10.989459604106	0.85489710357028
10.961333016453	0.85489144473474
10.933350036470	0.85488539805226
10.905509567115	0.85487896947509
10.877810522496	0.85487216492317
10.850251827723	0.85486499028401
10.822832418773	0.85485745141256
10.795551242348	0.85484955413115
10.768407255747	0.85484130422936
10.741399426729	0.85483270746391
10.714526733381	0.85482376955859
10.687788163993	0.85481449620415
10.661182716927	0.85480489305819
10.634709400497	0.85479496574513
10.608367232838	0.85478471985604
10.582155241793	0.85477416094862
10.556072464789	0.85476329454710
10.530117948718	0.85475212614216
10.504290749825	0.85474066119083
10.478589933590	0.85472890511646
10.453014574616	0.85471686330861
10.427563756522	0.85470454112303
10.402236571825	0.85469194388150
10.377032121841	0.85467907687190
10.351949516575	0.85466594534801
10.326987874612	0.85465255452955
10.302146323024	0.85463890960209
10.277423997257	0.85462501571697
10.252820041040	0.85461087799132
10.228333606278	0.85459650150791
10.203963852961	0.85458189131518
10.179709949066	0.85456705242719
10.155571070461	0.85455198982353
10.131546400811	0.85453670844933
10.107635131490	0.85452121321518
10.083836461487	0.85450550899715
10.060149597315	0.85448960063668
10.036573752929	0.85447349294064
10.013108149633	0.85445719068122
9.9897520159947	0.85444069859594
9.9665045877660	0.85442402138764
9.9433651077944	0.85440716372444
9.9203328259431	0.85439013023971
9.8974069990096	0.85437292553208
9.8745868906456	0.85435555416538
9.8518717712783	0.85433802066870
9.8292609180328	0.85432032953630
9.8067536146549	0.85430248522766
9.7843491514360	0.85428449216743
9.7620468251384	0.85426635474546
9.7398459389214	0.85424807731678
9.7177458022690	0.85422966420161
9.6957457309185	0.85421111968533
9.6738450467893	0.85419244801853
9.6520430779137	0.85417365341699
9.6303391583681	0.85415474006169
9.6087326282051	0.85413571209881
9.5872228333866	0.85411657363977
9.5658091257179	0.85409732876121
9.5444908627826	0.85407798150505
9.5232674078780	0.85405853587844
9.5021381299525	0.85403899585384
9.4811024035421	0.85401936536903
9.4601596087094	0.85399964832711
9.4393091309824	0.85397984859654
9.4185503612944	0.85395997001116
9.3978826959248	0.85394001637024
9.3773055364404	0.85391999143848
9.3568182896380	0.85389989894607
9.3364203674868	0.85387974258871
9.3161111870727	0.85385952602763
9.2958901705426	0.85383925288968
9.2757567450495	0.85381892676730
9.2557103426984	0.85379855121862
9.2357504004929	0.85377812976748
9.2158763602828	0.85375766590345
9.1960876687117	0.85373716308193
9.1763837771656	0.85371662472417
9.1567641417227	0.85369605421729
9.1372282231027	0.85367545491438
9.1177754866180	0.85365483013455
9.0984054021244	0.85363418316294
9.0791174439733	0.85361351725082
9.0599110909640	0.85359283561564
9.0407858262967	0.85357214144106
9.0217411375263	0.85355143787705
9.0027765165165	0.85353072803994
8.9838914593947	0.85351001501248
8.9650854665072	0.85348930184389
8.9463580423754	0.85346859154996
8.9277086956522	0.85344788711311
8.9091369390788	0.85342719148244
8.8906422894425	0.85340650757381
8.8722242675348	0.85338583826992
8.8538823981099	0.85336518642041
8.8356162098438	0.85334455484187
8.8174252352941	0.85332394631797
8.7993090108600	0.85330336359954
8.7812670767428	0.85328280940463
8.7632989769073	0.85326228641857
8.7454042590432	0.85324179729412
8.7275824745269	0.85322134465148
8.7098331783847	0.85320093107844
8.6921559292549	0.85318055913041
8.6745502893519	0.85316023133056
8.6570158244297	0.85313995016986
8.6395521037464	0.85311971810722
8.6221587000288	0.85309953756954
8.6048351894374	0.85307941095184
8.5875811515325	0.85305934061730
8.5703961692396	0.85303932889744
8.5532798288160	0.85301937809214
8.5362317198178	0.85299949046976
8.5192514350668	0.85297966826728
8.5023385706183	0.85295991369032
8.4854927257288	0.85294022891334
8.4687135028249	0.85292061607965
8.4520005074711	0.85290107730158
8.4353533483399	0.85288161466056
8.4187716371806	0.85286223020721
8.4022549887892	0.85284292596149
8.3858030209790	0.85282370391276
8.3694153545505	0.85280456601993
8.3530916132627	0.85278551421155
8.3368314238042	0.85276655038592
8.3206344157646	0.85274767641120
8.3045002216066	0.85272889412556
8.2884284766381	0.85271020533723
8.2724188189845	0.85269161182469
8.2564708895621	0.85267311533672
8.2405843320506	0.85265471759256
8.2247587928669	0.85263642028201
8.2089939211391	0.85261822506555
8.1932893686800	0.85260013357448
8.1776447899618	0.85258214741102
8.1620598420909	0.85256426814844
8.1465341847826	0.85254649733116
8.1310674803363	0.85252883647495
8.1156593936113	0.85251128706694
8.1003095920022	0.85249385056585
8.0850177454153	0.85247652840207
8.0697835262450	0.85245932197776
8.0546066093498	0.85244223266706
8.0394866720300	0.85242526181612
8.0244233940043	0.85240841074332
8.0094164573871	0.85239168073934
7.9944655466667	0.85237507306732
7.9795703486825	0.85235858896298
7.9647305526036	0.85234222963476
7.9499458499072	0.85232599626396
7.9352159343568	0.85230989000485
7.9205405019815	0.85229391198484
7.9059192510549	0.85227806330459
7.8913518820742	0.85226234503816
7.8768380977404	0.85224675823313
7.8623776029373	0.85223130391078
7.8479701047120	0.85221598306616
7.8336153122550	0.85220079666832
7.8193129368805	0.85218574566035
7.8050626920073	0.85217083095962
7.7908642931393	0.85215605345783
7.7767174578470	0.85214141402122
7.7626219057483	0.85212691349068
7.7485773584906	0.85211255268192
7.7345835397317	0.85209833238556
7.7206401751223	0.85208425336734
7.7067469922879	0.85207031636824
7.6929037208109	0.85205652210459
7.6791100922131	0.85204287126828
7.6653658399386	0.85202936452687
7.6516706993364	0.85201600252371
7.6380244076433	0.85200278587817
7.6244267039674	0.85198971518571
7.6108773292714	0.85197679101805
7.5973760263558	0.85196401392336
7.5839225398432	0.85195138442635
7.5705166161616	0.85193890302847
7.5571580035291	0.85192657020800
7.5438464519376	0.85191438642029
7.5305817131374	0.85190235209784
7.5173635406219	0.85189046765047
7.5041916896120	0.85187873346548
7.4910659170415	0.85186714990781
7.4779859815415	0.85185571732018
7.4649516434263	0.85184443602324
7.4519626646781	0.85183330631576
7.4390188089330	0.85182232847472
7.4261198414664	0.85181150275553
7.4132655291790	0.85180082939216
7.4004556405826	0.85179030859728
7.3876899457861	0.85177994056244
7.3749682164822	0.85176972545822
7.3622902259332	0.85175966343437
7.3496557489581	0.85174975462000
7.3370645619187	0.85173999912372
7.3245164427071	0.85173039703378
7.3120111707317	0.85172094841826
7.2995485269053	0.85171165332522
7.2871282936315	0.85170251178284
7.2747502547925	0.85169352379959
7.2624141957364	0.85168468936441
7.2501199032648	0.85167600844685
7.2378671656205	0.85166748099720
7.2256557724753	0.85165910694673
7.2134855149182	0.85165088620776
7.2013561854432	0.85164281867388
7.1892675779376	0.85163490422011
7.1772194876706	0.85162714270301
7.1652117112811	0.85161953396090
7.1532440467669	0.85161207781399
7.1413162934731	0.85160477406455
7.1294282520809	0.85159762249708
7.1175797245964	0.85159062287843
7.1057705143399	0.85158377495804
7.0940004259347	0.85157707846802
7.0822692652965	0.85157053312337
7.0705768396226	0.85156413862212
7.0589229573817	0.85155789464548
7.0473074283028	0.85155180085803
7.0357300633654	0.85154585690787
7.0241906747891	0.85154006242678
7.0126890760234	0.85153441703039
7.0012250817375	0.85152892031833
6.9897985078107	0.85152357187442
6.9784091713222	0.85151837126680
6.9670568905415	0.85151331804812
6.9557414849188	0.85150841175568
6.9444627750753	0.85150365191163
6.9332205827937	0.85149903802308
6.9220147310090	0.85149456958233
6.9108450437990	0.85149024606696
6.8997113463751	0.85148606694006
6.8886134650735	0.85148203165035
6.8775512273457	0.85147813963237
6.8665244617499	0.85147439030662
6.8555329979419	0.85147078307974
6.8445766666667	0.85146731734467
6.8336552997493	0.85146399248082
6.8227687300865	0.85146080785423
6.8119167916383	0.85145776281770
6.8010993194192	0.85145485671103
6.7903161494904	0.85145208886110
6.7795671189507	0.85144945858209
6.7688520659291	0.85144696517562
6.7581708295762	0.85144460793092
6.7475232500563	0.85144238612499
6.7369091685393	0.85144029902275
6.7263284271932	0.85143834587725
6.7157808691756	0.85143652592976
6.7052663386267	0.85143483841000
6.6947846806610	0.85143328253628
6.6843357413601	0.85143185751563
6.6739193677649	0.85143056254401
6.6635354078684	0.85142939680645
6.6531837106081	0.85142835947722
6.6428641258586	0.85142744971998
6.6325765044248	0.85142666668795
6.6223206980340	0.85142600952406
6.6120965593295	0.85142547736114
6.6019039418630	0.85142506932206
6.5917427000879	0.85142478451989
6.5816126893524	0.85142462205806
6.5715137658922	0.85142458103054
6.5614457868243	0.85142466052196
6.5514086101399	0.85142485960784
6.5414020946978	0.85142517735466
6.5314261002179	0.85142561282010
6.5214804872743	0.85142616505316
6.5115651172893	0.85142683309432
6.5016798525266	0.85142761597570
6.4918245560849	0.85142851272124
6.4819990918919	0.85142952234682
6.4722033246978	0.85143064386047
6.4624371200690	0.85143187626248
6.4527003443823	0.85143321854557
6.4429928648184	0.85143466969508
6.4333145493562	0.85143622868908
6.4236652667667	0.85143789449855
6.4140448866068	0.85143966608755
6.4044532792138	0.85144154241335
6.3948903156997	0.85144352242659
6.3853558679446	0.85144560507146
6.3758498085921	0.85144778928583
6.3663720110427	0.85145007400142
6.3569223494487	0.85145245814393
6.3475006987084	0.85145494063324
6.3381069344609	0.85145752038350
6.3287409330800	0.85146019630336
6.3194025716695	0.85146296729606
6.3100917280572	0.85146583225959
6.3008082807902	0.85146879008691
6.2915521091291	0.85147183966598
6.2823230930427	0.85147497988005
6.2731211132036	0.85147820960770
6.2639460509820	0.85148152772304
6.2547977884415	0.85148493309587
6.2456762083333	0.85148842459180
6.2365811940919	0.85149200107241
6.2275126298297	0.85149566139542
6.2184704003319	0.85149940441481
6.2094543910522	0.85150322898098
6.2004644881075	0.85150713394089
6.1915005782734	0.85151111813823
6.1825625489792	0.85151518041355
6.1736502883031	0.85151931960438
6.1647636849681	0.85152353454545
6.1559026283368	0.85152782406875
6.1470670084068	0.85153218700372
6.1382567158067	0.85153662217742
6.1294716417910	0.85154112841459
6.1207116782360	0.85154570453789
6.1119767176351	0.85155034936797
6.1032666530945	0.85155506172366
6.0945813783289	0.85155984042208
6.0859207876573	0.85156468427880
6.0772847759984	0.85156959210796
6.0686732388664	0.85157456272244
6.0600860723671	0.85157959493398
6.0515231731934	0.85158468755333
6.0429844386212	0.85158983939036
6.0344697665056	0.85159504925423
6.0259790552764	0.85160031595354
6.0175122039342	0.85160563829640
6.0090691120465	0.85161101509064
6.0006496797438	0.85161644514391
5.9922538077154	0.85162192726382
5.9838813972056	0.85162746025805
5.9755323500100	0.85163304293456
5.9672065684713	0.85163867410161
5.9589039554760	0.85164435256801
5.9506244144502	0.85165007714315
5.9423678493558	0.85165584663721
5.9341341646873	0.85166165986123
5.9259232654675	0.85166751562729
5.9177350572444	0.85167341274861
5.9095694460871	0.85167935003967
5.9014263385827	0.85168532631638
5.8933056418321	0.85169134039616
5.8852072634472	0.85169739109808
5.8771311115468	0.85170347724303
5.8690770947533	0.85170959765376
5.8610451221896	0.85171575115509
5.8530351034752	0.85172193657398
5.8450469487229	0.85172815273967
5.8370805685358	0.85173439848381
5.8291358740035	0.85174067264057
5.8212127766990	0.85174697404675
5.8133111886756	0.85175330154195
5.8054310224632	0.85175965396861
5.7975721910656	0.85176603017221
5.7897346079567	0.85177242900134
5.7819181870781	0.85177884930782
5.7741228428351	0.85178528994683
5.7663484900942	0.85179174977704
5.7585950441798	0.85179822766068
5.7508624208709	0.85180472246368
5.7431505363985	0.85181123305582
5.7354593074421	0.85181775831076
5.7277886511272	0.85182429710623
5.7201384850219	0.85183084832410
5.7125087271341	0.85183741085050
5.7048992959087	0.85184398357593
5.6973101102242	0.85185056539537
5.6897410893908	0.85185715520839
5.6821921531463	0.85186375191926
5.6746632216544	0.85187035443702
5.6671542155009	0.85187696167565
5.6596650556919	0.85188357255412
5.6521956636501	0.85189018599652
5.6447459612126	0.85189680093217
5.6373158706281	0.85190341629569
5.6299053145540	0.85191003102713
5.6225142160540	0.85191664407206
5.6151424985952	0.85192325438168
5.6077900860456	0.85192986091289
5.6004569026714	0.85193646262841
5.5931428731343	0.85194305849691
5.5858479224893	0.85194964749302
5.5785719761816	0.85195622859752
5.5713149600446	0.85196280079735
5.5640768002970	0.85196936308579
5.5568574235403	0.85197591446246
5.5496567567568	0.85198245393349
5.5424747273063	0.85198898051157
5.5353112629247	0.85199549321604
5.5281662917204	0.85200199107301
5.5210397421731	0.85200847311541
5.5139315431304	0.85201493838309
5.5068416238060	0.85202138592292
5.4997699137773	0.85202781478887
5.4927163429828	0.85203422404208
5.4856808417200	0.85204061275094
5.4786633406433	0.85204697999122
5.4716637707611	0.85205332484608
5.4646820634342	0.85205964640622
5.4577181503732	0.85206594376991
5.4507719636364	0.85207221604308
5.4438434356274	0.85207846233943
5.4369324990932	0.85208468178045
5.4300390871219	0.85209087349556
5.4231631331404	0.85209703662211
5.4163045709124	0.85210317030555
5.4094633345363	0.85210927369939
5.4026393584430	0.85211534596538
5.3958325773938	0.85212138627350
5.3890429264785	0.85212739380208
5.3822703411131	0.85213336773785
5.3755147570378	0.85213930727599
5.3687761103152	0.85214521162024
5.3620543373278	0.85215107998292
5.3553493747767	0.85215691158505
5.3486611596789	0.85216270565635
5.3419896293656	0.85216846143534
5.3353347214807	0.85217417816941
5.3286963739780	0.85217985511486
5.3220745251198	0.85218549153697
5.3154691134752	0.85219108671004
5.3088800779175	0.85219663991748
5.3023073576229	0.85220215045187
5.2957508920685	0.85220761761495
5.2892106210303	0.85221304071777
5.2826864845815	0.85221841908067
5.2761784230905	0.85222375203336
5.2696863772192	0.85222903891498
5.2632102879213	0.85223427907414
5.2567500964405	0.85223947186897
5.2503057443082	0.85224461666716
5.2438771733427	0.85224971284603
5.2374643256464	0.85225475979256
5.2310671436050	0.85225975690345
5.2246855698850	0.85226470358514
5.2183195474326	0.85226959925387
5.2119690194715	0.85227444333573
5.2056339295016	0.85227923526667
5.1993142212973	0.85228397449259
5.1930098389052	0.85228866046933
5.1867207266436	0.85229329266274
5.1804468290997	0.85229787054870
5.1741880911288	0.85230239361316
5.1679444578521	0.85230686135218
5.1617158746556	0.85231127327196
5.1555022871883	0.85231562888888
5.1493036413604	0.85231992772952
5.1431198833419	0.85232416933068
5.1369509595613	0.85232835323946
5.1307968167037	0.85233247901322
5.1246574017094	0.85233654621966
5.1185326617722	0.85234055443682
5.1124225443383	0.85234450325311
5.1063269971044	0.85234839226735
5.1002459680163	0.85235222108876
5.0941794052676	0.85235598933702
5.0881272572980	0.85235969664226
5.0820894727920	0.85236334264509
5.0760660006773	0.85236692699663
5.0700567901235	0.85237044935851
5.0640617905405	0.85237390940291
5.0580809515775	0.85237730681254
5.0521142231210	0.85238064128068
5.0461615552937	0.85238391251120
5.0402228984533	0.85238712021855
5.0342982031906	0.85239026412777
5.0283874203287	0.85239334397453
5.0224905009214	0.85239635950510
5.0166073962517	0.85239931047639
5.0107380578305	0.85240219665595
5.0048824373957	0.85240501782195
4.9990404869101	0.85240777376321
4.9932121585610	0.85241046427921
4.9873974047579	0.85241308918005
4.9815961781323	0.85241564828651
4.9758084315353	0.85241814143001
4.9700341180371	0.85242056845261
4.9642731909256	0.85242292920702
4.9585256037049	0.85242522355659
4.9527913100942	0.85242745137534
4.9470702640264	0.85242961254787
4.9413624196473	0.85243170696944
4.9356677313138	0.85243373454594
4.9299861535932	0.85243569519384
4.9243176412615	0.85243758884022
4.9186621493027	0.85243941542276
4.9130196329072	0.85244117488971
4.9073900474709	0.85244286719988
4.9017733485939	0.85244449232264
4.8961694920790	0.85244605023788
4.8905784339315	0.85244754093603
4.8850001303569	0.85244896441799
4.8794345377604	0.85245032069516
4.8738816127459	0.85245160978941
4.8683413121143	0.85245283173304
4.8628135928629	0.85245398656876
4.8572984121841	0.85245507434968
4.8517957274640	0.85245609513931
4.8463054962819	0.85245704901147
4.8408276764088	0.85245793605032
4.8353622258065	0.85245875635030
