#Parameters = {thARC=0.4; nARC=1; thsub=1; p=1; nSub=2.25}
#"Wavelength / um"	"T (273) [Real Part]"
#---------------------------------------
14.989622900000	0.85207070220815
14.937342202292	0.85207074888967
14.885424925521	0.85207079428936
14.833867293419	0.85207083842226
14.782665581854	0.85207088130336
14.731816117936	0.85207092294761
14.681315279138	0.85207096336985
14.631159492435	0.85207100258488
14.581345233463	0.85207104060744
14.531869025691	0.85207107745219
14.482727439614	0.85207111313373
14.433917091960	0.85207114766659
14.385434644914	0.85207118106524
14.337276805356	0.85207121334406
14.289440324118	0.85207124451740
14.241921995249	0.85207127459951
14.194718655303	0.85207130360459
14.147827182633	0.85207133154675
14.101244496707	0.85207135844006
14.054967557431	0.85207138429849
14.008993364486	0.85207140913597
13.963318956684	0.85207143296633
13.917941411328	0.85207145580336
13.872857843591	0.85207147766076
13.828065405904	0.85207149855215
13.783561287356	0.85207151849111
13.739342713107	0.85207153749111
13.695406943810	0.85207155556559
13.651751275046	0.85207157272789
13.608373036768	0.85207158899127
13.565269592760	0.85207160436894
13.522438340099	0.85207161887404
13.479876708633	0.85207163251960
13.437582160466	0.85207164531863
13.395552189455	0.85207165728401
13.353784320713	0.85207166842860
13.312276110124	0.85207167876514
13.271025143869	0.85207168830633
13.230029037952	0.85207169706477
13.189285437747	0.85207170505300
13.148792017544	0.85207171228349
13.108546480105	0.85207171876862
13.068546556234	0.85207172452069
13.028790004346	0.85207172955195
12.989274610052	0.85207173387456
12.949998185745	0.85207173750059
12.910958570198	0.85207174044206
12.872153628167	0.85207174271090
12.833581250000	0.85207174431896
12.795239351259	0.85207174527802
12.757125872340	0.85207174559979
12.719238778108	0.85207174529587
12.681576057530	0.85207174437784
12.644135723323	0.85207174285714
12.606915811606	0.85207174074518
12.569914381551	0.85207173805328
12.533129515050	0.85207173479266
12.496559316382	0.85207173097449
12.460201911887	0.85207172660985
12.424055449648	0.85207172170974
12.388118099174	0.85207171628510
12.352388051092	0.85207171034676
12.316863516845	0.85207170390551
12.281542728390	0.85207169697202
12.246423937908	0.85207168955691
12.211505417515	0.85207168167071
12.176785458976	0.85207167332388
12.142262373431	0.85207166452680
12.107934491115	0.85207165528976
12.073800161095	0.85207164562299
12.039857751004	0.85207163553661
12.006105646776	0.85207162504070
11.972542252396	0.85207161414524
11.939165989646	0.85207160286012
11.905975297855	0.85207159119516
11.872968633663	0.85207157916013
11.840144470774	0.85207156676467
11.807501299724	0.85207155401838
11.775037627651	0.85207154093076
11.742751978065	0.85207152751124
11.710642890625	0.85207151376916
11.678708920919	0.85207149971380
11.646948640249	0.85207148535435
11.615360635413	0.85207147069991
11.583943508501	0.85207145575951
11.552695876686	0.85207144054211
11.521616372022	0.85207142505657
11.490703641242	0.85207140931170
11.459956345566	0.85207139331620
11.429373160503	0.85207137707871
11.398952775665	0.85207136060778
11.368693894577	0.85207134391189
11.338595234493	0.85207132699943
11.308655526217	0.85207130987873
11.278873513920	0.85207129255802
11.249247954972	0.85207127504545
11.219777619760	0.85207125734911
11.190461291527	0.85207123947701
11.161297766195	0.85207122143705
11.132285852209	0.85207120323710
11.103424370370	0.85207118488490
11.074712153676	0.85207116638815
11.046148047163	0.85207114775446
11.017730907755	0.85207112899135
10.989459604106	0.85207111010628
10.961333016453	0.85207109110661
10.933350036470	0.85207107199965
10.905509567115	0.85207105279260
10.877810522496	0.85207103349261
10.850251827723	0.85207101410674
10.822832418773	0.85207099464196
10.795551242348	0.85207097510518
10.768407255747	0.85207095550324
10.741399426729	0.85207093584288
10.714526733381	0.85207091613076
10.687788163993	0.85207089637350
10.661182716927	0.85207087657759
10.634709400497	0.85207085674950
10.608367232838	0.85207083689557
10.582155241793	0.85207081702210
10.556072464789	0.85207079713530
10.530117948718	0.85207077724130
10.504290749825	0.85207075734617
10.478589933590	0.85207073745587
10.453014574616	0.85207071757633
10.427563756522	0.85207069771337
10.402236571825	0.85207067787275
10.377032121841	0.85207065806014
10.351949516575	0.85207063828116
10.326987874612	0.85207061854132
10.302146323024	0.85207059884609
10.277423997257	0.85207057920085
10.252820041040	0.85207055961090
10.228333606278	0.85207054008147
10.203963852961	0.85207052061772
10.179709949066	0.85207050122474
10.155571070461	0.85207048190753
10.131546400811	0.85207046267103
10.107635131490	0.85207044352010
10.083836461487	0.85207042445954
10.060149597315	0.85207040549406
10.036573752929	0.85207038662830
10.013108149633	0.85207036786684
9.9897520159947	0.85207034921417
9.9665045877660	0.85207033067473
9.9433651077944	0.85207031225288
9.9203328259431	0.85207029395288
9.8974069990096	0.85207027577897
9.8745868906456	0.85207025773528
9.8518717712783	0.85207023982588
9.8292609180328	0.85207022205478
9.8067536146549	0.85207020442591
9.7843491514360	0.85207018694312
9.7620468251384	0.85207016961022
9.7398459389214	0.85207015243091
9.7177458022690	0.85207013540885
9.6957457309185	0.85207011854763
9.6738450467893	0.85207010185077
9.6520430779137	0.85207008532170
9.6303391583681	0.85207006896380
9.6087326282051	0.85207005278039
9.5872228333866	0.85207003677471
9.5658091257179	0.85207002094993
9.5444908627826	0.85207000530917
9.5232674078780	0.85206998985546
9.5021381299525	0.85206997459177
9.4811024035421	0.85206995952102
9.4601596087094	0.85206994464605
9.4393091309824	0.85206992996964
9.4185503612944	0.85206991549450
9.3978826959248	0.85206990122327
9.3773055364404	0.85206988715853
9.3568182896380	0.85206987330281
9.3364203674868	0.85206985965856
9.3161111870727	0.85206984622817
9.2958901705426	0.85206983301396
9.2757567450495	0.85206982001819
9.2557103426984	0.85206980724307
9.2357504004929	0.85206979469073
9.2158763602828	0.85206978236326
9.1960876687117	0.85206977026265
9.1763837771656	0.85206975839087
9.1567641417227	0.85206974674980
9.1372282231027	0.85206973534128
9.1177754866180	0.85206972416706
9.0984054021244	0.85206971322887
9.0791174439733	0.85206970252835
9.0599110909640	0.85206969206708
9.0407858262967	0.85206968184661
9.0217411375263	0.85206967186839
9.0027765165165	0.85206966213384
8.9838914593947	0.85206965264432
8.9650854665072	0.85206964340111
8.9463580423754	0.85206963440547
8.9277086956522	0.85206962565856
8.9091369390788	0.85206961716152
8.8906422894425	0.85206960891541
8.8722242675348	0.85206960092125
8.8538823981099	0.85206959317998
8.8356162098438	0.85206958569251
8.8174252352941	0.85206957845969
8.7993090108600	0.85206957148230
8.7812670767428	0.85206956476109
8.7632989769073	0.85206955829673
8.7454042590432	0.85206955208985
8.7275824745269	0.85206954614102
8.7098331783847	0.85206954045078
8.6921559292549	0.85206953501959
8.6745502893519	0.85206952984787
8.6570158244297	0.85206952493598
8.6395521037464	0.85206952028423
8.6221587000288	0.85206951589290
8.6048351894374	0.85206951176219
8.5875811515325	0.85206950789227
8.5703961692396	0.85206950428325
8.5532798288160	0.85206950093519
8.5362317198178	0.85206949784811
8.5192514350668	0.85206949502197
8.5023385706183	0.85206949245669
8.4854927257288	0.85206949015214
8.4687135028249	0.85206948810813
8.4520005074711	0.85206948632445
8.4353533483399	0.85206948480081
8.4187716371806	0.85206948353691
8.4022549887892	0.85206948253238
8.3858030209790	0.85206948178680
8.3694153545505	0.85206948129971
8.3530916132627	0.85206948107063
8.3368314238042	0.85206948109900
8.3206344157646	0.85206948138423
8.3045002216066	0.85206948192569
8.2884284766381	0.85206948272270
8.2724188189845	0.85206948377455
8.2564708895621	0.85206948508047
8.2405843320506	0.85206948663966
8.2247587928669	0.85206948845128
8.2089939211391	0.85206949051443
8.1932893686800	0.85206949282819
8.1776447899618	0.85206949539159
8.1620598420909	0.85206949820362
8.1465341847826	0.85206950126324
8.1310674803363	0.85206950456936
8.1156593936113	0.85206950812085
8.1003095920022	0.85206951191655
8.0850177454153	0.85206951595525
8.0697835262450	0.85206952023572
8.0546066093498	0.85206952475668
8.0394866720300	0.85206952951682
8.0244233940043	0.85206953451478
8.0094164573871	0.85206953974918
7.9944655466667	0.85206954521860
7.9795703486825	0.85206955092157
7.9647305526036	0.85206955685662
7.9499458499072	0.85206956302221
7.9352159343568	0.85206956941679
7.9205405019815	0.85206957603875
7.9059192510549	0.85206958288648
7.8913518820742	0.85206958995831
7.8768380977404	0.85206959725255
7.8623776029373	0.85206960476749
7.8479701047120	0.85206961250135
7.8336153122550	0.85206962045237
7.8193129368805	0.85206962861873
7.8050626920073	0.85206963699856
7.7908642931393	0.85206964559001
7.7767174578470	0.85206965439117
7.7626219057483	0.85206966340010
7.7485773584906	0.85206967261483
7.7345835397317	0.85206968203338
7.7206401751223	0.85206969165373
7.7067469922879	0.85206970147382
7.6929037208109	0.85206971149160
7.6791100922131	0.85206972170496
7.6653658399386	0.85206973211177
7.6516706993364	0.85206974270988
7.6380244076433	0.85206975349712
7.6244267039674	0.85206976447128
7.6108773292714	0.85206977563014
7.5973760263558	0.85206978697146
7.5839225398432	0.85206979849295
7.5705166161616	0.85206981019232
7.5571580035291	0.85206982206725
7.5438464519376	0.85206983411541
7.5305817131374	0.85206984633442
7.5173635406219	0.85206985872190
7.5041916896120	0.85206987127546
7.4910659170415	0.85206988399265
7.4779859815415	0.85206989687104
7.4649516434263	0.85206990990815
7.4519626646781	0.85206992310151
7.4390188089330	0.85206993644861
7.4261198414664	0.85206994994692
7.4132655291790	0.85206996359390
7.4004556405826	0.85206997738699
7.3876899457861	0.85206999132363
7.3749682164822	0.85207000540120
7.3622902259332	0.85207001961710
7.3496557489581	0.85207003396871
7.3370645619187	0.85207004845338
7.3245164427071	0.85207006306846
7.3120111707317	0.85207007781127
7.2995485269053	0.85207009267912
7.2871282936315	0.85207010766932
7.2747502547925	0.85207012277915
7.2624141957364	0.85207013800587
7.2501199032648	0.85207015334676
7.2378671656205	0.85207016879905
7.2256557724753	0.85207018435998
7.2134855149182	0.85207020002677
7.2013561854432	0.85207021579663
7.1892675779376	0.85207023166676
7.1772194876706	0.85207024763436
7.1652117112811	0.85207026369659
7.1532440467669	0.85207027985064
7.1413162934731	0.85207029609365
7.1294282520809	0.85207031242279
7.1175797245964	0.85207032883519
7.1057705143399	0.85207034532798
7.0940004259347	0.85207036189830
7.0822692652965	0.85207037854327
7.0705768396226	0.85207039525998
7.0589229573817	0.85207041204556
7.0473074283028	0.85207042889710
7.0357300633654	0.85207044581169
7.0241906747891	0.85207046278642
7.0126890760234	0.85207047981838
7.0012250817375	0.85207049690463
6.9897985078107	0.85207051404226
6.9784091713222	0.85207053122833
6.9670568905415	0.85207054845992
6.9557414849188	0.85207056573407
6.9444627750753	0.85207058304786
6.9332205827937	0.85207060039834
6.9220147310090	0.85207061778256
6.9108450437990	0.85207063519758
6.8997113463751	0.85207065264045
6.8886134650735	0.85207067010822
6.8775512273457	0.85207068759794
6.8665244617499	0.85207070510666
6.8555329979419	0.85207072263144
6.8445766666667	0.85207074016932
6.8336552997493	0.85207075771735
6.8227687300865	0.85207077527259
6.8119167916383	0.85207079283209
6.8010993194192	0.85207081039291
6.7903161494904	0.85207082795210
6.7795671189507	0.85207084550673
6.7688520659291	0.85207086305386
6.7581708295762	0.85207088059055
6.7475232500563	0.85207089811388
6.7369091685393	0.85207091562093
6.7263284271932	0.85207093310876
6.7157808691756	0.85207095057447
6.7052663386267	0.85207096801515
6.6947846806610	0.85207098542788
6.6843357413601	0.85207100280976
6.6739193677649	0.85207102015791
6.6635354078684	0.85207103746944
6.6531837106081	0.85207105474145
6.6428641258586	0.85207107197109
6.6325765044248	0.85207108915547
6.6223206980340	0.85207110629175
6.6120965593295	0.85207112337707
6.6019039418630	0.85207114040859
6.5917427000879	0.85207115738348
6.5816126893524	0.85207117429890
6.5715137658922	0.85207119115204
6.5614457868243	0.85207120794010
6.5514086101399	0.85207122466027
6.5414020946978	0.85207124130978
6.5314261002179	0.85207125788585
6.5214804872743	0.85207127438570
6.5115651172893	0.85207129080660
6.5016798525266	0.85207130714578
6.4918245560849	0.85207132340054
6.4819990918919	0.85207133956813
6.4722033246978	0.85207135564587
6.4624371200690	0.85207137163105
6.4527003443823	0.85207138752099
6.4429928648184	0.85207140331303
6.4333145493562	0.85207141900452
6.4236652667667	0.85207143459280
6.4140448866068	0.85207145007526
6.4044532792138	0.85207146544929
6.3948903156997	0.85207148071228
6.3853558679446	0.85207149586165
6.3758498085921	0.85207151089484
6.3663720110427	0.85207152580930
6.3569223494487	0.85207154060249
6.3475006987084	0.85207155527188
6.3381069344609	0.85207156981498
6.3287409330800	0.85207158422930
6.3194025716695	0.85207159851237
6.3100917280572	0.85207161266174
6.3008082807902	0.85207162667496
6.2915521091291	0.85207164054962
6.2823230930427	0.85207165428333
6.2731211132036	0.85207166787369
6.2639460509820	0.85207168131835
6.2547977884415	0.85207169461496
6.2456762083333	0.85207170776118
6.2365811940919	0.85207172075473
6.2275126298297	0.85207173359330
6.2184704003319	0.85207174627463
6.2094543910522	0.85207175879646
6.2004644881075	0.85207177115658
6.1915005782734	0.85207178335277
6.1825625489792	0.85207179538284
6.1736502883031	0.85207180724463
6.1647636849681	0.85207181893599
6.1559026283368	0.85207183045479
6.1470670084068	0.85207184179893
6.1382567158067	0.85207185296633
6.1294716417910	0.85207186395493
6.1207116782360	0.85207187476268
6.1119767176351	0.85207188538758
6.1032666530945	0.85207189582762
6.0945813783289	0.85207190608084
6.0859207876573	0.85207191614529
6.0772847759984	0.85207192601904
6.0686732388664	0.85207193570019
6.0600860723671	0.85207194518686
6.0515231731934	0.85207195447719
6.0429844386212	0.85207196356936
6.0344697665056	0.85207197246155
6.0259790552764	0.85207198115199
6.0175122039342	0.85207198963890
6.0090691120465	0.85207199792057
6.0006496797438	0.85207200599527
5.9922538077154	0.85207201386132
5.9838813972056	0.85207202151707
5.9755323500100	0.85207202896087
5.9672065684713	0.85207203619112
5.9589039554760	0.85207204320623
5.9506244144502	0.85207205000464
5.9423678493558	0.85207205658482
5.9341341646873	0.85207206294527
5.9259232654675	0.85207206908450
5.9177350572444	0.85207207500106
5.9095694460871	0.85207208069351
5.9014263385827	0.85207208616047
5.8933056418321	0.85207209140054
5.8852072634472	0.85207209641239
5.8771311115468	0.85207210119469
5.8690770947533	0.85207210574615
5.8610451221896	0.85207211006550
5.8530351034752	0.85207211415150
5.8450469487229	0.85207211800294
5.8370805685358	0.85207212161863
5.8291358740035	0.85207212499742
5.8212127766990	0.85207212813818
5.8133111886756	0.85207213103980
5.8054310224632	0.85207213370121
5.7975721910656	0.85207213612137
5.7897346079567	0.85207213829925
5.7819181870781	0.85207214023388
5.7741228428351	0.85207214192428
5.7663484900942	0.85207214336953
5.7585950441798	0.85207214456872
5.7508624208709	0.85207214552098
5.7431505363985	0.85207214622546
5.7354593074421	0.85207214668134
5.7277886511272	0.85207214688784
5.7201384850219	0.85207214684419
5.7125087271341	0.85207214654967
5.7048992959087	0.85207214600357
5.6973101102242	0.85207214520522
5.6897410893908	0.85207214415398
5.6821921531463	0.85207214284923
5.6746632216544	0.85207214129039
5.6671542155009	0.85207213947690
5.6596650556919	0.85207213740825
5.6521956636501	0.85207213508392
5.6447459612126	0.85207213250346
5.6373158706281	0.85207212966642
5.6299053145540	0.85207212657241
5.6225142160540	0.85207212322104
5.6151424985952	0.85207211961196
5.6077900860456	0.85207211574486
5.6004569026714	0.85207211161945
5.5931428731343	0.85207210723547
5.5858479224893	0.85207210259268
5.5785719761816	0.85207209769090
5.5713149600446	0.85207209252995
5.5640768002970	0.85207208710969
5.5568574235403	0.85207208143001
5.5496567567568	0.85207207549083
5.5424747273063	0.85207206929210
5.5353112629247	0.85207206283381
5.5281662917204	0.85207205611595
5.5210397421731	0.85207204913858
5.5139315431304	0.85207204190175
5.5068416238060	0.85207203440558
5.4997699137773	0.85207202665018
5.4927163429828	0.85207201863572
5.4856808417200	0.85207201036239
5.4786633406433	0.85207200183040
5.4716637707611	0.85207199304000
5.4646820634342	0.85207198399147
5.4577181503732	0.85207197468512
5.4507719636364	0.85207196512128
5.4438434356274	0.85207195530032
5.4369324990932	0.85207194522264
5.4300390871219	0.85207193488866
5.4231631331404	0.85207192429884
5.4163045709124	0.85207191345366
5.4094633345363	0.85207190235364
5.4026393584430	0.85207189099932
5.3958325773938	0.85207187939126
5.3890429264785	0.85207186753008
5.3822703411131	0.85207185541641
5.3755147570378	0.85207184305090
5.3687761103152	0.85207183043424
5.3620543373278	0.85207181756715
5.3553493747767	0.85207180445038
5.3486611596789	0.85207179108470
5.3419896293656	0.85207177747091
5.3353347214807	0.85207176360986
5.3286963739780	0.85207174950239
5.3220745251198	0.85207173514940
5.3154691134752	0.85207172055180
5.3088800779175	0.85207170571055
5.3023073576229	0.85207169062661
5.2957508920685	0.85207167530099
5.2892106210303	0.85207165973471
5.2826864845815	0.85207164392884
5.2761784230905	0.85207162788446
5.2696863772192	0.85207161160268
5.2632102879213	0.85207159508465
5.2567500964405	0.85207157833152
5.2503057443082	0.85207156134450
5.2438771733427	0.85207154412480
5.2374643256464	0.85207152667368
5.2310671436050	0.85207150899240
5.2246855698850	0.85207149108228
5.2183195474326	0.85207147294465
5.2119690194715	0.85207145458084
5.2056339295016	0.85207143599226
5.1993142212973	0.85207141718029
5.1930098389052	0.85207139814639
5.1867207266436	0.85207137889200
5.1804468290997	0.85207135941862
5.1741880911288	0.85207133972774
5.1679444578521	0.85207131982092
5.1617158746556	0.85207129969970
5.1555022871883	0.85207127936567
5.1493036413604	0.85207125882045
5.1431198833419	0.85207123806566
5.1369509595613	0.85207121710298
5.1307968167037	0.85207119593408
5.1246574017094	0.85207117456067
5.1185326617722	0.85207115298448
5.1124225443383	0.85207113120727
5.1063269971044	0.85207110923081
5.1002459680163	0.85207108705692
5.0941794052676	0.85207106468741
5.0881272572980	0.85207104212413
5.0820894727920	0.85207101936897
5.0760660006773	0.85207099642380
5.0700567901235	0.85207097329055
5.0640617905405	0.85207094997115
5.0580809515775	0.85207092646757
5.0521142231210	0.85207090278178
5.0461615552937	0.85207087891580
5.0402228984533	0.85207085487165
5.0342982031906	0.85207083065137
5.0283874203287	0.85207080625703
5.0224905009214	0.85207078169071
5.0166073962517	0.85207075695453
5.0107380578305	0.85207073205062
5.0048824373957	0.85207070698112
4.9990404869101	0.85207068174820
4.9932121585610	0.85207065635405
4.9873974047579	0.85207063080088
4.9815961781323	0.85207060509090
4.9758084315353	0.85207057922637
4.9700341180371	0.85207055320955
4.9642731909256	0.85207052704272
4.9585256037049	0.85207050072818
4.9527913100942	0.85207047426824
4.9470702640264	0.85207044766524
4.9413624196473	0.85207042092154
4.9356677313138	0.85207039403949
4.9299861535932	0.85207036702149
4.9243176412615	0.85207033986994
4.9186621493027	0.85207031258725
4.9130196329072	0.85207028517586
4.9073900474709	0.85207025763822
4.9017733485939	0.85207022997679
4.8961694920790	0.85207020219405
4.8905784339315	0.85207017429250
4.8850001303569	0.85207014627465
4.8794345377604	0.85207011814301
4.8738816127459	0.85207008990014
4.8683413121143	0.85207006154856
4.8628135928629	0.85207003309086
4.8572984121841	0.85207000452961
4.8517957274640	0.85206997586740
4.8463054962819	0.85206994710682
4.8408276764088	0.85206991825050
4.8353622258065	0.85206988930106
