#Parameters = {thARC=0; nARC=1.75; thsub=1; p=1; nSub=2.25}
#"Wavelength / um"	"T (289) [Real Part]"
#---------------------------------------
14.989622900000	0.85207100744672
14.937342202292	0.85214352727048
14.885424925521	0.85221490005412
14.833867293419	0.85228513394300
14.782665581854	0.85235423707778
14.731816117936	0.85242221759399
14.681315279138	0.85248908362158
14.631159492435	0.85255484328456
14.581345233463	0.85261950470057
14.531869025691	0.85268307598047
14.482727439614	0.85274556522795
14.433917091960	0.85280698053911
14.385434644914	0.85286733000209
14.337276805356	0.85292662169663
14.289440324118	0.85298486369373
14.241921995249	0.85304206405523
14.194718655303	0.85309823083343
14.147827182633	0.85315337207071
14.101244496707	0.85320749579914
14.054967557431	0.85326061004010
14.008993364486	0.85331272280393
13.963318956684	0.85336384208953
13.917941411328	0.85341397588398
13.872857843591	0.85346313216223
13.828065405904	0.85351131888667
13.783561287356	0.85355854400680
13.739342713107	0.85360481545889
13.695406943810	0.85365014116559
13.651751275046	0.85369452903558
13.608373036768	0.85373798696326
13.565269592760	0.85378052282836
13.522438340099	0.85382214449562
13.479876708633	0.85386285981444
13.437582160466	0.85390267661854
13.395552189455	0.85394160272566
13.353784320713	0.85397964593717
13.312276110124	0.85401681403778
13.271025143869	0.85405311479522
13.230029037952	0.85408855595989
13.189285437747	0.85412314526458
13.148792017544	0.85415689042409
13.108546480105	0.85418979913499
13.068546556234	0.85422187907527
13.028790004346	0.85425313790404
12.989274610052	0.85428358326122
12.949998185745	0.85431322276725
12.910958570198	0.85434206402278
12.872153628167	0.85437011460840
12.833581250000	0.85439738208432
12.795239351259	0.85442387399010
12.757125872340	0.85444959784433
12.719238778108	0.85447456114441
12.681576057530	0.85449877136623
12.644135723323	0.85452223596388
12.606915811606	0.85454496236941
12.569914381551	0.85456695799255
12.533129515050	0.85458823022043
12.496559316382	0.85460878641732
12.460201911887	0.85462863392440
12.424055449648	0.85464778005946
12.388118099174	0.85466623211665
12.352388051092	0.85468399736627
12.316863516845	0.85470108305447
12.281542728390	0.85471749640303
12.246423937908	0.85473324460912
12.211505417515	0.85474833484506
12.176785458976	0.85476277425806
12.142262373431	0.85477656997004
12.107934491115	0.85478972907732
12.073800161095	0.85480225865048
12.039857751004	0.85481416573408
12.006105646776	0.85482545734644
11.972542252396	0.85483614047946
11.939165989646	0.85484622209837
11.905975297855	0.85485570914153
11.872968633663	0.85486460852022
11.840144470774	0.85487292711844
11.807501299724	0.85488067179269
11.775037627651	0.85488784937180
11.742751978065	0.85489446665670
11.710642890625	0.85490053042026
11.678708920919	0.85490604740706
11.646948640249	0.85491102433324
11.615360635413	0.85491546788629
11.583943508501	0.85491938472488
11.552695876686	0.85492278147869
11.521616372022	0.85492566474821
11.490703641242	0.85492804110456
11.459956345566	0.85492991708938
11.429373160503	0.85493129921460
11.398952775665	0.85493219396229
11.368693894577	0.85493260778453
11.338595234493	0.85493254710320
11.308655526217	0.85493201830988
11.278873513920	0.85493102776566
11.249247954972	0.85492958180099
11.219777619760	0.85492768671555
11.190461291527	0.85492534877812
11.161297766195	0.85492257422638
11.132285852209	0.85491936926684
11.103424370370	0.85491574007467
11.074712153676	0.85491169279355
11.046148047163	0.85490723353560
11.017730907755	0.85490236838118
10.989459604106	0.85489710337881
10.961333016453	0.85489144454505
10.933350036470	0.85488539786435
10.905509567115	0.85487896928898
10.877810522496	0.85487216473887
10.850251827723	0.85486499010152
10.822832418773	0.85485745123189
10.795551242348	0.85484955395232
10.768407255747	0.85484130405236
10.741399426729	0.85483270728877
10.714526733381	0.85482376938530
10.687788163993	0.85481449603273
10.661182716927	0.85480489288865
10.634709400497	0.85479496557747
10.608367232838	0.85478471969027
10.582155241793	0.85477416078475
10.556072464789	0.85476329438514
10.530117948718	0.85475212598211
10.504290749825	0.85474066103270
10.478589933590	0.85472890496026
10.453014574616	0.85471686315435
10.427563756522	0.85470454097071
10.402236571825	0.85469194373114
10.377032121841	0.85467907672349
10.351949516575	0.85466594520157
10.326987874612	0.85465255438508
10.302146323024	0.85463890945960
10.277423997257	0.85462501557647
10.252820041040	0.85461087785281
10.228333606278	0.85459650137140
10.203963852961	0.85458189118068
10.179709949066	0.85456705229470
10.155571070461	0.85455198969306
10.131546400811	0.85453670832088
10.107635131490	0.85452121308876
10.083836461487	0.85450550887276
10.060149597315	0.85448960051434
10.036573752929	0.85447349282034
10.013108149633	0.85445719056297
9.9897520159947	0.85444069847974
9.9665045877660	0.85442402127351
9.9433651077944	0.85440716361238
9.9203328259431	0.85439013012972
9.8974069990096	0.85437292542415
9.8745868906456	0.85435555405954
9.8518717712783	0.85433802056494
9.8292609180328	0.85432032943463
9.8067536146549	0.85430248512808
9.7843491514360	0.85428449206995
9.7620468251384	0.85426635465009
9.7398459389214	0.85424807722351
9.7177458022690	0.85422966411045
9.6957457309185	0.85421111959628
9.6738450467893	0.85419244793160
9.6520430779137	0.85417365333218
9.6303391583681	0.85415473997900
9.6087326282051	0.85413571201825
9.5872228333866	0.85411657356134
9.5658091257179	0.85409732868492
9.5444908627826	0.85407798143089
9.5232674078780	0.85405853580642
9.5021381299525	0.85403899578396
9.4811024035421	0.85401936530130
9.4601596087094	0.85399964826152
9.4393091309824	0.85397984853310
9.4185503612944	0.85395996994987
9.3978826959248	0.85394001631110
9.3773055364404	0.85391999138150
9.3568182896380	0.85389989889125
9.3364203674868	0.85387974253604
9.3161111870727	0.85385952597713
9.2958901705426	0.85383925284133
9.2757567450495	0.85381892672112
9.2557103426984	0.85379855117460
9.2357504004929	0.85377812972562
9.2158763602828	0.85375766586376
9.1960876687117	0.85373716304442
9.1763837771656	0.85371662468882
9.1567641417227	0.85369605418411
9.1372282231027	0.85367545488338
9.1177754866180	0.85365483010571
9.0984054021244	0.85363418313628
9.0791174439733	0.85361351722633
9.0599110909640	0.85359283559331
9.0407858262967	0.85357214142090
9.0217411375263	0.85355143785907
9.0027765165165	0.85353072802413
8.9838914593947	0.85351001499884
8.9650854665072	0.85348930183242
8.9463580423754	0.85346859154067
8.9277086956522	0.85344788710599
8.9091369390788	0.85342719147748
8.8906422894425	0.85340650757102
8.8722242675348	0.85338583826931
8.8538823981099	0.85336518642196
8.8356162098438	0.85334455484558
8.8174252352941	0.85332394632385
8.7993090108600	0.85330336360759
8.7812670767428	0.85328280941483
8.7632989769073	0.85326228643094
8.7454042590432	0.85324179730864
8.7275824745269	0.85322134466817
8.7098331783847	0.85320093109728
8.6921559292549	0.85318055915141
8.6745502893519	0.85316023135370
8.6570158244297	0.85313995019516
8.6395521037464	0.85311971813467
8.6221587000288	0.85309953759913
8.6048351894374	0.85307941098357
8.5875811515325	0.85305934065118
8.5703961692396	0.85303932893346
8.5532798288160	0.85301937813029
8.5362317198178	0.85299949051004
8.5192514350668	0.85297966830968
8.5023385706183	0.85295991373486
8.4854927257288	0.85294022896000
8.4687135028249	0.85292061612843
8.4520005074711	0.85290107735248
8.4353533483399	0.85288161471357
8.4187716371806	0.85286223026233
8.4022549887892	0.85284292601872
8.3858030209790	0.85282370397209
8.3694153545505	0.85280456608136
8.3530916132627	0.85278551427507
8.3368314238042	0.85276655045153
8.3206344157646	0.85274767647890
8.3045002216066	0.85272889419534
8.2884284766381	0.85271020540910
8.2724188189845	0.85269161189863
8.2564708895621	0.85267311541273
8.2405843320506	0.85265471767064
8.2247587928669	0.85263642036215
8.2089939211391	0.85261822514775
8.1932893686800	0.85260013365873
8.1776447899618	0.85258214749731
8.1620598420909	0.85256426823677
8.1465341847826	0.85254649742153
8.1310674803363	0.85252883656735
8.1156593936113	0.85251128716137
8.1003095920022	0.85249385066230
8.0850177454153	0.85247652850053
8.0697835262450	0.85245932207823
8.0546066093498	0.85244223276953
8.0394866720300	0.85242526192060
8.0244233940043	0.85240841084979
8.0094164573871	0.85239168084780
7.9944655466667	0.85237507317776
7.9795703486825	0.85235858907539
7.9647305526036	0.85234222974914
7.9499458499072	0.85232599638030
7.9352159343568	0.85230989012315
7.9205405019815	0.85229391210509
7.9059192510549	0.85227806342678
7.8913518820742	0.85226234516228
7.8768380977404	0.85224675835919
7.8623776029373	0.85223130403875
7.8479701047120	0.85221598319606
7.8336153122550	0.85220079680012
7.8193129368805	0.85218574579406
7.8050626920073	0.85217083109522
7.7908642931393	0.85215605359532
7.7767174578470	0.85214141416059
7.7626219057483	0.85212691363193
7.7485773584906	0.85211255282503
7.7345835397317	0.85209833253053
7.7206401751223	0.85208425351416
7.7067469922879	0.85207031651690
7.6929037208109	0.85205652225509
7.6791100922131	0.85204287142061
7.6653658399386	0.85202936468101
7.6516706993364	0.85201600267967
7.6380244076433	0.85200278603594
7.6244267039674	0.85198971534527
7.6108773292714	0.85197679117940
7.5973760263558	0.85196401408649
7.5839225398432	0.85195138459126
7.5705166161616	0.85193890319513
7.5571580035291	0.85192657037642
7.5438464519376	0.85191438659046
7.5305817131374	0.85190235226974
7.5173635406219	0.85189046782410
7.5041916896120	0.85187873364083
7.4910659170415	0.85186715008487
7.4779859815415	0.85185571749894
7.4649516434263	0.85184443620370
7.4519626646781	0.85183330649790
7.4390188089330	0.85182232865854
7.4261198414664	0.85181150294102
7.4132655291790	0.85180082957930
7.4004556405826	0.85179030878607
7.3876899457861	0.85177994075286
7.3749682164822	0.85176972565027
7.3622902259332	0.85175966362804
7.3496557489581	0.85174975481528
7.3370645619187	0.85173999932060
7.3245164427071	0.85173039723225
7.3120111707317	0.85172094861831
7.2995485269053	0.85171165352684
7.2871282936315	0.85170251198601
7.2747502547925	0.85169352400432
7.2624141957364	0.85168468957068
7.2501199032648	0.85167600865465
7.2378671656205	0.85166748120652
7.2256557724753	0.85165910715756
7.2134855149182	0.85165088642009
7.2013561854432	0.85164281888770
7.1892675779376	0.85163490443541
7.1772194876706	0.85162714291977
7.1652117112811	0.85161953417912
7.1532440467669	0.85161207803366
7.1413162934731	0.85160477428566
7.1294282520809	0.85159762271961
7.1175797245964	0.85159062310238
7.1057705143399	0.85158377518339
7.0940004259347	0.85157707869477
7.0822692652965	0.85157053335150
7.0705768396226	0.85156413885162
7.0589229573817	0.85155789487634
7.0473074283028	0.85155180109024
7.0357300633654	0.85154585714142
7.0241906747891	0.85154006266166
7.0126890760234	0.85153441726658
7.0012250817375	0.85152892055583
6.9897985078107	0.85152357211321
6.9784091713222	0.85151837150687
6.9670568905415	0.85151331828946
6.9557414849188	0.85150841199828
6.9444627750753	0.85150365215547
6.9332205827937	0.85149903826816
6.9220147310090	0.85149456982863
6.9108450437990	0.85149024631448
6.8997113463751	0.85148606718878
6.8886134650735	0.85148203190026
6.8775512273457	0.85147813988345
6.8665244617499	0.85147439055886
6.8555329979419	0.85147078333314
6.8445766666667	0.85146731759921
6.8336552997493	0.85146399273649
6.8227687300865	0.85146080811101
6.8119167916383	0.85145776307559
6.8010993194192	0.85145485697001
6.7903161494904	0.85145208912116
6.7795671189507	0.85144945884322
6.7688520659291	0.85144696543781
6.7581708295762	0.85144460819415
6.7475232500563	0.85144238638925
6.7369091685393	0.85144029928803
6.7263284271932	0.85143834614353
6.7157808691756	0.85143652619704
6.7052663386267	0.85143483867826
6.6947846806610	0.85143328280551
6.6843357413601	0.85143185778581
6.6739193677649	0.85143056281514
6.6635354078684	0.85142939707851
6.6531837106081	0.85142835975020
6.6428641258586	0.85142744999386
6.6325765044248	0.85142666696272
6.6223206980340	0.85142600979971
6.6120965593295	0.85142547763766
6.6019039418630	0.85142506959944
6.5917427000879	0.85142478479811
6.5816126893524	0.85142462233710
6.5715137658922	0.85142458131039
6.5614457868243	0.85142466080262
6.5514086101399	0.85142485988928
6.5414020946978	0.85142517763688
6.5314261002179	0.85142561310309
6.5214804872743	0.85142616533690
6.5115651172893	0.85142683337879
6.5016798525266	0.85142761626090
6.4918245560849	0.85142851300715
6.4819990918919	0.85142952263343
6.4722033246978	0.85143064414776
6.4624371200690	0.85143187655044
6.4527003443823	0.85143321883419
6.4429928648184	0.85143466998434
6.4333145493562	0.85143622897897
6.4236652667667	0.85143789478906
6.4140448866068	0.85143966637866
6.4044532792138	0.85144154270505
6.3948903156997	0.85144352271887
6.3853558679446	0.85144560536430
6.3758498085921	0.85144778957923
6.3663720110427	0.85145007429535
6.3569223494487	0.85145245843839
6.3475006987084	0.85145494092820
6.3381069344609	0.85145752067896
6.3287409330800	0.85146019659930
6.3194025716695	0.85146296759247
6.3100917280572	0.85146583255646
6.3008082807902	0.85146879038421
6.2915521091291	0.85147183996372
6.2823230930427	0.85147498017820
6.2731211132036	0.85147820990625
6.2639460509820	0.85148152802198
6.2547977884415	0.85148493339518
6.2456762083333	0.85148842489147
6.2365811940919	0.85149200137243
6.2275126298297	0.85149566169577
6.2184704003319	0.85149940471548
6.2094543910522	0.85150322928195
6.2004644881075	0.85150713424216
6.1915005782734	0.85151111843977
6.1825625489792	0.85151518071535
6.1736502883031	0.85151931990644
6.1647636849681	0.85152353484774
6.1559026283368	0.85152782437126
6.1470670084068	0.85153218730645
6.1382567158067	0.85153662248033
6.1294716417910	0.85154112871769
6.1207116782360	0.85154570484115
6.1119767176351	0.85155034967139
6.1032666530945	0.85155506202722
6.0945813783289	0.85155984072577
6.0859207876573	0.85156468458259
6.0772847759984	0.85156959241185
6.0686732388664	0.85157456302642
6.0600860723671	0.85157959523803
6.0515231731934	0.85158468785743
6.0429844386212	0.85158983969451
6.0344697665056	0.85159504955841
6.0259790552764	0.85160031625773
6.0175122039342	0.85160563860060
6.0090691120465	0.85161101539483
6.0006496797438	0.85161644544807
5.9922538077154	0.85162192756793
5.9838813972056	0.85162746056212
5.9755323500100	0.85163304323855
5.9672065684713	0.85163867440553
5.9589039554760	0.85164435287183
5.9506244144502	0.85165007744686
5.9423678493558	0.85165584694080
5.9341341646873	0.85166166016469
5.9259232654675	0.85166751593060
5.9177350572444	0.85167341305175
5.9095694460871	0.85167935034264
5.9014263385827	0.85168532661916
5.8933056418321	0.85169134069873
5.8852072634472	0.85169739140043
5.8771311115468	0.85170347754515
5.8690770947533	0.85170959795563
5.8610451221896	0.85171575145670
5.8530351034752	0.85172193687532
5.8450469487229	0.85172815304073
5.8370805685358	0.85173439878457
5.8291358740035	0.85174067294101
5.8212127766990	0.85174697434687
5.8133111886756	0.85175330184172
5.8054310224632	0.85175965426803
5.7975721910656	0.85176603047126
5.7897346079567	0.85177242930001
5.7819181870781	0.85177884960609
5.7741228428351	0.85178529024470
5.7663484900942	0.85179175007449
5.7585950441798	0.85179822795769
5.7508624208709	0.85180472276025
5.7431505363985	0.85181123335192
5.7354593074421	0.85181775860638
5.7277886511272	0.85182429740137
5.7201384850219	0.85183084861873
5.7125087271341	0.85183741114462
5.7048992959087	0.85184398386952
5.6973101102242	0.85185056568842
5.6897410893908	0.85185715550089
5.6821921531463	0.85186375221119
5.6746632216544	0.85187035472837
5.6671542155009	0.85187696196640
5.6596650556919	0.85188357284426
5.6521956636501	0.85189018628605
5.6447459612126	0.85189680122106
5.6373158706281	0.85190341658394
5.6299053145540	0.85191003131472
5.6225142160540	0.85191664435898
5.6151424985952	0.85192325466791
5.6077900860456	0.85192986119842
5.6004569026714	0.85193646291324
5.5931428731343	0.85194305878101
5.5858479224893	0.85194964777639
5.5785719761816	0.85195622888013
5.5713149600446	0.85196280107921
5.5640768002970	0.85196936336686
5.5568574235403	0.85197591474275
5.5496567567568	0.85198245421298
5.5424747273063	0.85198898079024
5.5353112629247	0.85199549349389
5.5281662917204	0.85200199135002
5.5210397421731	0.85200847339157
5.5139315431304	0.85201493865839
5.5068416238060	0.85202138619735
5.4997699137773	0.85202781506241
5.4927163429828	0.85203422431472
5.4856808417200	0.85204061302267
5.4786633406433	0.85204698026202
5.4716637707611	0.85205332511595
5.4646820634342	0.85205964667514
5.4577181503732	0.85206594403787
5.4507719636364	0.85207221631007
5.4438434356274	0.85207846260543
5.4369324990932	0.85208468204546
5.4300390871219	0.85209087375956
5.4231631331404	0.85209703688510
5.4163045709124	0.85210317056750
5.4094633345363	0.85210927396030
5.4026393584430	0.85211534622523
5.3958325773938	0.85212138653229
5.3890429264785	0.85212739405979
5.3822703411131	0.85213336799446
5.3755147570378	0.85213930753150
5.3687761103152	0.85214521187464
5.3620543373278	0.85215108023620
5.3553493747767	0.85215691183719
5.3486611596789	0.85216270590734
5.3419896293656	0.85216846168518
5.3353347214807	0.85217417841808
5.3286963739780	0.85217985536235
5.3220745251198	0.85218549178326
5.3154691134752	0.85219108695512
5.3088800779175	0.85219664016136
5.3023073576229	0.85220215069451
5.2957508920685	0.85220761785636
5.2892106210303	0.85221304095793
5.2826864845815	0.85221841931957
5.2761784230905	0.85222375227100
5.2696863772192	0.85222903915134
5.2632102879213	0.85223427930921
5.2567500964405	0.85223947210273
5.2503057443082	0.85224461689961
5.2438771733427	0.85224971307716
5.2374643256464	0.85225476002236
5.2310671436050	0.85225975713191
5.2246855698850	0.85226470381225
5.2183195474326	0.85226959947961
5.2119690194715	0.85227444356010
5.2056339295016	0.85227923548966
5.1993142212973	0.85228397471418
5.1930098389052	0.85228866068952
5.1867207266436	0.85229329288151
5.1804468290997	0.85229787076605
5.1741880911288	0.85230239382907
5.1679444578521	0.85230686156665
5.1617158746556	0.85231127348498
5.1555022871883	0.85231562910044
5.1493036413604	0.85231992793960
5.1431198833419	0.85232416953929
5.1369509595613	0.85232835344657
5.1307968167037	0.85233247921884
5.1246574017094	0.85233654642377
5.1185326617722	0.85234055463941
5.1124225443383	0.85234450345417
5.1063269971044	0.85234839246687
5.1002459680163	0.85235222128674
5.0941794052676	0.85235598953344
5.0881272572980	0.85235969683711
5.0820894727920	0.85236334283837
5.0760660006773	0.85236692718833
5.0700567901235	0.85237044954862
5.0640617905405	0.85237390959142
5.0580809515775	0.85237730699944
5.0521142231210	0.85238064146597
5.0461615552937	0.85238391269487
5.0402228984533	0.85238712040058
5.0342982031906	0.85239026430816
5.0283874203287	0.85239334415327
5.0224905009214	0.85239635968218
5.0166073962517	0.85239931065181
5.0107380578305	0.85240219682969
5.0048824373957	0.85240501799401
4.9990404869101	0.85240777393358
4.9932121585610	0.85241046444788
4.9873974047579	0.85241308934702
4.9815961781323	0.85241564845177
4.9758084315353	0.85241814159355
4.9700341180371	0.85242056861442
4.9642731909256	0.85242292936709
4.9585256037049	0.85242522371493
4.9527913100942	0.85242745153192
4.9470702640264	0.85242961270269
4.9413624196473	0.85243170712251
4.9356677313138	0.85243373469723
4.9299861535932	0.85243569534335
4.9243176412615	0.85243758898795
4.9186621493027	0.85243941556870
4.9130196329072	0.85244117503385
4.9073900474709	0.85244286734221
4.9017733485939	0.85244449246316
4.8961694920790	0.85244605037659
4.8905784339315	0.85244754107291
4.8850001303569	0.85244896455304
4.8794345377604	0.85245032082837
4.8738816127459	0.85245160992078
4.8683413121143	0.85245283186255
4.8628135928629	0.85245398669642
4.8572984121841	0.85245507447549
4.8517957274640	0.85245609526324
4.8463054962819	0.85245704913353
4.8408276764088	0.85245793617050
4.8353622258065	0.85245875646860
