#Parameters = {thARC=0; nARC=2.25; thsub=1; p=1; nSub=2.25}
#"Wavelength / um"	"T (301) [Real Part]"
#---------------------------------------
14.989622900000	0.85207100744415
14.937342202292	0.85214352726791
14.885424925521	0.85221490005156
14.833867293419	0.85228513394045
14.782665581854	0.85235423707524
14.731816117936	0.85242221759145
14.681315279138	0.85248908361904
14.631159492435	0.85255484328203
14.581345233463	0.85261950469805
14.531869025691	0.85268307597796
14.482727439614	0.85274556522544
14.433917091960	0.85280698053661
14.385434644914	0.85286732999959
14.337276805356	0.85292662169413
14.289440324118	0.85298486369124
14.241921995249	0.85304206405275
14.194718655303	0.85309823083096
14.147827182633	0.85315337206824
14.101244496707	0.85320749579667
14.054967557431	0.85326061003764
14.008993364486	0.85331272280148
13.963318956684	0.85336384208707
13.917941411328	0.85341397588153
13.872857843591	0.85346313215979
13.828065405904	0.85351131888423
13.783561287356	0.85355854400437
13.739342713107	0.85360481545646
13.695406943810	0.85365014116316
13.651751275046	0.85369452903316
13.608373036768	0.85373798696084
13.565269592760	0.85378052282594
13.522438340099	0.85382214449320
13.479876708633	0.85386285981203
13.437582160466	0.85390267661614
13.395552189455	0.85394160272326
13.353784320713	0.85397964593477
13.312276110124	0.85401681403538
13.271025143869	0.85405311479283
13.230029037952	0.85408855595750
13.189285437747	0.85412314526219
13.148792017544	0.85415689042170
13.108546480105	0.85418979913261
13.068546556234	0.85422187907289
13.028790004346	0.85425313790166
12.989274610052	0.85428358325884
12.949998185745	0.85431322276487
12.910958570198	0.85434206402041
12.872153628167	0.85437011460603
12.833581250000	0.85439738208196
12.795239351259	0.85442387398773
12.757125872340	0.85444959784196
12.719238778108	0.85447456114205
12.681576057530	0.85449877136387
12.644135723323	0.85452223596152
12.606915811606	0.85454496236705
12.569914381551	0.85456695799019
12.533129515050	0.85458823021807
12.496559316382	0.85460878641497
12.460201911887	0.85462863392205
12.424055449648	0.85464778005710
12.388118099174	0.85466623211430
12.352388051092	0.85468399736392
12.316863516845	0.85470108305212
12.281542728390	0.85471749640068
12.246423937908	0.85473324460677
12.211505417515	0.85474833484270
12.176785458976	0.85476277425571
12.142262373431	0.85477656996768
12.107934491115	0.85478972907497
12.073800161095	0.85480225864813
12.039857751004	0.85481416573172
12.006105646776	0.85482545734409
11.972542252396	0.85483614047711
11.939165989646	0.85484622209602
11.905975297855	0.85485570913918
11.872968633663	0.85486460851787
11.840144470774	0.85487292711608
11.807501299724	0.85488067179033
11.775037627651	0.85488784936944
11.742751978065	0.85489446665434
11.710642890625	0.85490053041790
11.678708920919	0.85490604740469
11.646948640249	0.85491102433087
11.615360635413	0.85491546788393
11.583943508501	0.85491938472252
11.552695876686	0.85492278147633
11.521616372022	0.85492566474584
11.490703641242	0.85492804110219
11.459956345566	0.85492991708701
11.429373160503	0.85493129921223
11.398952775665	0.85493219395992
11.368693894577	0.85493260778215
11.338595234493	0.85493254710082
11.308655526217	0.85493201830750
11.278873513920	0.85493102776327
11.249247954972	0.85492958179860
11.219777619760	0.85492768671316
11.190461291527	0.85492534877573
11.161297766195	0.85492257422399
11.132285852209	0.85491936926445
11.103424370370	0.85491574007227
11.074712153676	0.85491169279115
11.046148047163	0.85490723353320
11.017730907755	0.85490236837877
10.989459604106	0.85489710337640
10.961333016453	0.85489144454264
10.933350036470	0.85488539786194
10.905509567115	0.85487896928657
10.877810522496	0.85487216473645
10.850251827723	0.85486499009910
10.822832418773	0.85485745122947
10.795551242348	0.85484955394989
10.768407255747	0.85484130404993
10.741399426729	0.85483270728633
10.714526733381	0.85482376938287
10.687788163993	0.85481449603028
10.661182716927	0.85480489288620
10.634709400497	0.85479496557502
10.608367232838	0.85478471968781
10.582155241793	0.85477416078229
10.556072464789	0.85476329438268
10.530117948718	0.85475212597964
10.504290749825	0.85474066103023
10.478589933590	0.85472890495779
10.453014574616	0.85471686315188
10.427563756522	0.85470454096823
10.402236571825	0.85469194372866
10.377032121841	0.85467907672100
10.351949516575	0.85466594519908
10.326987874612	0.85465255438259
10.302146323024	0.85463890945710
10.277423997257	0.85462501557397
10.252820041040	0.85461087785030
10.228333606278	0.85459650136888
10.203963852961	0.85458189117816
10.179709949066	0.85456705229218
10.155571070461	0.85455198969053
10.131546400811	0.85453670831835
10.107635131490	0.85452121308623
10.083836461487	0.85450550887022
10.060149597315	0.85448960051179
10.036573752929	0.85447349281779
10.013108149633	0.85445719056041
9.9897520159947	0.85444069847719
9.9665045877660	0.85442402127095
9.9433651077944	0.85440716360981
9.9203328259431	0.85439013012714
9.8974069990096	0.85437292542157
9.8745868906456	0.85435555405696
9.8518717712783	0.85433802056235
9.8292609180328	0.85432032943204
9.8067536146549	0.85430248512548
9.7843491514360	0.85428449206735
9.7620468251384	0.85426635464748
9.7398459389214	0.85424807722090
9.7177458022690	0.85422966410783
9.6957457309185	0.85421111959366
9.6738450467893	0.85419244792897
9.6520430779137	0.85417365332954
9.6303391583681	0.85415473997636
9.6087326282051	0.85413571201560
9.5872228333866	0.85411657355869
9.5658091257179	0.85409732868226
9.5444908627826	0.85407798142822
9.5232674078780	0.85405853580375
9.5021381299525	0.85403899578129
9.4811024035421	0.85401936529862
9.4601596087094	0.85399964825884
9.4393091309824	0.85397984853040
9.4185503612944	0.85395996994717
9.3978826959248	0.85394001630840
9.3773055364404	0.85391999137879
9.3568182896380	0.85389989888853
9.3364203674868	0.85387974253332
9.3161111870727	0.85385952597440
9.2958901705426	0.85383925283860
9.2757567450495	0.85381892671838
9.2557103426984	0.85379855117186
9.2357504004929	0.85377812972287
9.2158763602828	0.85375766586101
9.1960876687117	0.85373716304165
9.1763837771656	0.85371662468605
9.1567641417227	0.85369605418133
9.1372282231027	0.85367545488059
9.1177754866180	0.85365483010293
9.0984054021244	0.85363418313348
9.0791174439733	0.85361351722353
9.0599110909640	0.85359283559051
9.0407858262967	0.85357214141809
9.0217411375263	0.85355143785625
9.0027765165165	0.85353072802131
8.9838914593947	0.85351001499601
8.9650854665072	0.85348930182959
8.9463580423754	0.85346859153783
8.9277086956522	0.85344788710314
8.9091369390788	0.85342719147463
8.8906422894425	0.85340650756816
8.8722242675348	0.85338583826644
8.8538823981099	0.85336518641908
8.8356162098438	0.85334455484270
8.8174252352941	0.85332394632097
8.7993090108600	0.85330336360470
8.7812670767428	0.85328280941194
8.7632989769073	0.85326228642803
8.7454042590432	0.85324179730573
8.7275824745269	0.85322134466525
8.7098331783847	0.85320093109435
8.6921559292549	0.85318055914847
8.6745502893519	0.85316023135077
8.6570158244297	0.85313995019221
8.6395521037464	0.85311971813172
8.6221587000288	0.85309953759618
8.6048351894374	0.85307941098061
8.5875811515325	0.85305934064821
8.5703961692396	0.85303932893048
8.5532798288160	0.85301937812730
8.5362317198178	0.85299949050705
8.5192514350668	0.85297966830669
8.5023385706183	0.85295991373186
8.4854927257288	0.85294022895699
8.4687135028249	0.85292061612541
8.4520005074711	0.85290107734946
8.4353533483399	0.85288161471054
8.4187716371806	0.85286223025930
8.4022549887892	0.85284292601568
8.3858030209790	0.85282370396904
8.3694153545505	0.85280456607831
8.3530916132627	0.85278551427201
8.3368314238042	0.85276655044846
8.3206344157646	0.85274767647583
8.3045002216066	0.85272889419226
8.2884284766381	0.85271020540601
8.2724188189845	0.85269161189554
8.2564708895621	0.85267311540964
8.2405843320506	0.85265471766753
8.2247587928669	0.85263642035903
8.2089939211391	0.85261822514463
8.1932893686800	0.85260013365560
8.1776447899618	0.85258214749418
8.1620598420909	0.85256426823363
8.1465341847826	0.85254649741839
8.1310674803363	0.85252883656420
8.1156593936113	0.85251128715821
8.1003095920022	0.85249385065914
8.0850177454153	0.85247652849736
8.0697835262450	0.85245932207506
8.0546066093498	0.85244223276635
8.0394866720300	0.85242526191741
8.0244233940043	0.85240841084660
8.0094164573871	0.85239168084460
7.9944655466667	0.85237507317455
7.9795703486825	0.85235858907218
7.9647305526036	0.85234222974592
7.9499458499072	0.85232599637708
7.9352159343568	0.85230989011992
7.9205405019815	0.85229391210185
7.9059192510549	0.85227806342354
7.8913518820742	0.85226234515903
7.8768380977404	0.85224675835593
7.8623776029373	0.85223130403549
7.8479701047120	0.85221598319279
7.8336153122550	0.85220079679685
7.8193129368805	0.85218574579078
7.8050626920073	0.85217083109193
7.7908642931393	0.85215605359203
7.7767174578470	0.85214141415729
7.7626219057483	0.85212691362862
7.7485773584906	0.85211255282172
7.7345835397317	0.85209833252721
7.7206401751223	0.85208425351084
7.7067469922879	0.85207031651357
7.6929037208109	0.85205652225176
7.6791100922131	0.85204287141727
7.6653658399386	0.85202936467767
7.6516706993364	0.85201600267632
7.6380244076433	0.85200278603258
7.6244267039674	0.85198971534190
7.6108773292714	0.85197679117603
7.5973760263558	0.85196401408312
7.5839225398432	0.85195138458787
7.5705166161616	0.85193890319174
7.5571580035291	0.85192657037303
7.5438464519376	0.85191438658706
7.5305817131374	0.85190235226634
7.5173635406219	0.85189046782069
7.5041916896120	0.85187873363741
7.4910659170415	0.85186715008145
7.4779859815415	0.85185571749551
7.4649516434263	0.85184443620027
7.4519626646781	0.85183330649446
7.4390188089330	0.85182232865509
7.4261198414664	0.85181150293757
7.4132655291790	0.85180082957585
7.4004556405826	0.85179030878261
7.3876899457861	0.85177994074940
7.3749682164822	0.85176972564680
7.3622902259332	0.85175966362456
7.3496557489581	0.85174975481180
7.3370645619187	0.85173999931711
7.3245164427071	0.85173039722875
7.3120111707317	0.85172094861481
7.2995485269053	0.85171165352333
7.2871282936315	0.85170251198251
7.2747502547925	0.85169352400081
7.2624141957364	0.85168468956716
7.2501199032648	0.85167600865112
7.2378671656205	0.85166748120299
7.2256557724753	0.85165910715402
7.2134855149182	0.85165088641655
7.2013561854432	0.85164281888416
7.1892675779376	0.85163490443186
7.1772194876706	0.85162714291622
7.1652117112811	0.85161953417556
7.1532440467669	0.85161207803010
7.1413162934731	0.85160477428209
7.1294282520809	0.85159762271604
7.1175797245964	0.85159062309880
7.1057705143399	0.85158377517981
7.0940004259347	0.85157707869118
7.0822692652965	0.85157053334791
7.0705768396226	0.85156413884802
7.0589229573817	0.85155789487274
7.0473074283028	0.85155180108663
7.0357300633654	0.85154585713781
7.0241906747891	0.85154006265804
7.0126890760234	0.85153441726296
7.0012250817375	0.85152892055220
6.9897985078107	0.85152357210958
6.9784091713222	0.85151837150323
6.9670568905415	0.85151331828582
6.9557414849188	0.85150841199464
6.9444627750753	0.85150365215182
6.9332205827937	0.85149903826451
6.9220147310090	0.85149456982498
6.9108450437990	0.85149024631082
6.8997113463751	0.85148606718511
6.8886134650735	0.85148203189659
6.8775512273457	0.85147813987978
6.8665244617499	0.85147439055519
6.8555329979419	0.85147078332946
6.8445766666667	0.85146731759553
6.8336552997493	0.85146399273280
6.8227687300865	0.85146080810732
6.8119167916383	0.85145776307189
6.8010993194192	0.85145485696631
6.7903161494904	0.85145208911746
6.7795671189507	0.85144945883951
6.7688520659291	0.85144696543409
6.7581708295762	0.85144460819043
6.7475232500563	0.85144238638553
6.7369091685393	0.85144029928431
6.7263284271932	0.85143834613980
6.7157808691756	0.85143652619330
6.7052663386267	0.85143483867453
6.6947846806610	0.85143328280177
6.6843357413601	0.85143185778207
6.6739193677649	0.85143056281139
6.6635354078684	0.85142939707476
6.6531837106081	0.85142835974645
6.6428641258586	0.85142744999010
6.6325765044248	0.85142666695896
6.6223206980340	0.85142600979595
6.6120965593295	0.85142547763390
6.6019039418630	0.85142506959567
6.5917427000879	0.85142478479433
6.5816126893524	0.85142462233333
6.5715137658922	0.85142458130661
6.5614457868243	0.85142466079884
6.5514086101399	0.85142485988550
6.5414020946978	0.85142517763310
6.5314261002179	0.85142561309930
6.5214804872743	0.85142616533311
6.5115651172893	0.85142683337500
6.5016798525266	0.85142761625710
6.4918245560849	0.85142851300334
6.4819990918919	0.85142952262962
6.4722033246978	0.85143064414395
6.4624371200690	0.85143187654663
6.4527003443823	0.85143321883038
6.4429928648184	0.85143466998052
6.4333145493562	0.85143622897515
6.4236652667667	0.85143789478524
6.4140448866068	0.85143966637484
6.4044532792138	0.85144154270122
6.3948903156997	0.85144352271504
6.3853558679446	0.85144560536047
6.3758498085921	0.85144778957539
6.3663720110427	0.85145007429151
6.3569223494487	0.85145245843455
6.3475006987084	0.85145494092436
6.3381069344609	0.85145752067512
6.3287409330800	0.85146019659546
6.3194025716695	0.85146296758862
6.3100917280572	0.85146583255261
6.3008082807902	0.85146879038036
6.2915521091291	0.85147183995986
6.2823230930427	0.85147498017434
6.2731211132036	0.85147820990239
6.2639460509820	0.85148152801812
6.2547977884415	0.85148493339132
6.2456762083333	0.85148842488761
6.2365811940919	0.85149200136856
6.2275126298297	0.85149566169190
6.2184704003319	0.85149940471161
6.2094543910522	0.85150322927808
6.2004644881075	0.85150713423828
6.1915005782734	0.85151111843590
6.1825625489792	0.85151518071147
6.1736502883031	0.85151931990256
6.1647636849681	0.85152353484386
6.1559026283368	0.85152782436738
6.1470670084068	0.85153218730256
6.1382567158067	0.85153662247645
6.1294716417910	0.85154112871380
6.1207116782360	0.85154570483727
6.1119767176351	0.85155034966750
6.1032666530945	0.85155506202333
6.0945813783289	0.85155984072187
6.0859207876573	0.85156468457870
6.0772847759984	0.85156959240796
6.0686732388664	0.85157456302252
6.0600860723671	0.85157959523413
6.0515231731934	0.85158468785353
6.0429844386212	0.85158983969061
6.0344697665056	0.85159504955451
6.0259790552764	0.85160031625383
6.0175122039342	0.85160563859669
6.0090691120465	0.85161101539092
6.0006496797438	0.85161644544416
5.9922538077154	0.85162192756403
5.9838813972056	0.85162746055821
5.9755323500100	0.85163304323465
5.9672065684713	0.85163867440162
5.9589039554760	0.85164435286792
5.9506244144502	0.85165007744295
5.9423678493558	0.85165584693689
5.9341341646873	0.85166166016077
5.9259232654675	0.85166751592669
5.9177350572444	0.85167341304784
5.9095694460871	0.85167935033872
5.9014263385827	0.85168532661524
5.8933056418321	0.85169134069481
5.8852072634472	0.85169739139652
5.8771311115468	0.85170347754123
5.8690770947533	0.85170959795172
5.8610451221896	0.85171575145279
5.8530351034752	0.85172193687140
5.8450469487229	0.85172815303681
5.8370805685358	0.85173439878065
5.8291358740035	0.85174067293709
5.8212127766990	0.85174697434295
5.8133111886756	0.85175330183780
5.8054310224632	0.85175965426411
5.7975721910656	0.85176603046734
5.7897346079567	0.85177242929609
5.7819181870781	0.85177884960217
5.7741228428351	0.85178529024078
5.7663484900942	0.85179175007057
5.7585950441798	0.85179822795377
5.7508624208709	0.85180472275633
5.7431505363985	0.85181123334800
5.7354593074421	0.85181775860246
5.7277886511272	0.85182429739744
5.7201384850219	0.85183084861481
5.7125087271341	0.85183741114070
5.7048992959087	0.85184398386560
5.6973101102242	0.85185056568450
5.6897410893908	0.85185715549697
5.6821921531463	0.85186375220727
5.6746632216544	0.85187035472445
5.6671542155009	0.85187696196248
5.6596650556919	0.85188357284035
5.6521956636501	0.85189018628213
5.6447459612126	0.85189680121715
5.6373158706281	0.85190341658002
5.6299053145540	0.85191003131080
5.6225142160540	0.85191664435506
5.6151424985952	0.85192325466399
5.6077900860456	0.85192986119450
5.6004569026714	0.85193646290932
5.5931428731343	0.85194305877709
5.5858479224893	0.85194964777247
5.5785719761816	0.85195622887622
5.5713149600446	0.85196280107529
5.5640768002970	0.85196936336295
5.5568574235403	0.85197591473884
5.5496567567568	0.85198245420907
5.5424747273063	0.85198898078633
5.5353112629247	0.85199549348999
5.5281662917204	0.85200199134612
5.5210397421731	0.85200847338767
5.5139315431304	0.85201493865449
5.5068416238060	0.85202138619345
5.4997699137773	0.85202781505851
5.4927163429828	0.85203422431082
5.4856808417200	0.85204061301877
5.4786633406433	0.85204698025812
5.4716637707611	0.85205332511205
5.4646820634342	0.85205964667124
5.4577181503732	0.85206594403397
5.4507719636364	0.85207221630618
5.4438434356274	0.85207846260154
5.4369324990932	0.85208468204157
5.4300390871219	0.85209087375567
5.4231631331404	0.85209703688121
5.4163045709124	0.85210317056361
5.4094633345363	0.85210927395641
5.4026393584430	0.85211534622134
5.3958325773938	0.85212138652840
5.3890429264785	0.85212739405590
5.3822703411131	0.85213336799058
5.3755147570378	0.85213930752762
5.3687761103152	0.85214521187076
5.3620543373278	0.85215108023232
5.3553493747767	0.85215691183331
5.3486611596789	0.85216270590347
5.3419896293656	0.85216846168130
5.3353347214807	0.85217417841420
5.3286963739780	0.85217985535847
5.3220745251198	0.85218549177939
5.3154691134752	0.85219108695125
5.3088800779175	0.85219664015749
5.3023073576229	0.85220215069065
5.2957508920685	0.85220761785250
5.2892106210303	0.85221304095407
5.2826864845815	0.85221841931571
5.2761784230905	0.85222375226714
5.2696863772192	0.85222903914748
5.2632102879213	0.85223427930535
5.2567500964405	0.85223947209888
5.2503057443082	0.85224461689576
5.2438771733427	0.85224971307331
5.2374643256464	0.85225476001851
5.2310671436050	0.85225975712806
5.2246855698850	0.85226470380840
5.2183195474326	0.85226959947577
5.2119690194715	0.85227444355625
5.2056339295016	0.85227923548582
5.1993142212973	0.85228397471034
5.1930098389052	0.85228866068568
5.1867207266436	0.85229329287768
5.1804468290997	0.85229787076221
5.1741880911288	0.85230239382524
5.1679444578521	0.85230686156282
5.1617158746556	0.85231127348115
5.1555022871883	0.85231562909661
5.1493036413604	0.85231992793578
5.1431198833419	0.85232416953547
5.1369509595613	0.85232835344275
5.1307968167037	0.85233247921502
5.1246574017094	0.85233654641995
5.1185326617722	0.85234055463559
5.1124225443383	0.85234450345036
5.1063269971044	0.85234839246306
5.1002459680163	0.85235222128293
5.0941794052676	0.85235598952963
5.0881272572980	0.85235969683331
5.0820894727920	0.85236334283457
5.0760660006773	0.85236692718453
5.0700567901235	0.85237044954482
5.0640617905405	0.85237390958762
5.0580809515775	0.85237730699565
5.0521142231210	0.85238064146218
5.0461615552937	0.85238391269108
5.0402228984533	0.85238712039679
5.0342982031906	0.85239026430437
5.0283874203287	0.85239334414948
5.0224905009214	0.85239635967840
5.0166073962517	0.85239931064803
5.0107380578305	0.85240219682591
5.0048824373957	0.85240501799023
4.9990404869101	0.85240777392981
4.9932121585610	0.85241046444411
4.9873974047579	0.85241308934325
4.9815961781323	0.85241564844800
4.9758084315353	0.85241814158978
4.9700341180371	0.85242056861065
4.9642731909256	0.85242292936333
4.9585256037049	0.85242522371117
4.9527913100942	0.85242745152816
4.9470702640264	0.85242961269894
4.9413624196473	0.85243170711875
4.9356677313138	0.85243373469348
4.9299861535932	0.85243569533960
4.9243176412615	0.85243758898420
4.9186621493027	0.85243941556495
4.9130196329072	0.85244117503010
4.9073900474709	0.85244286733847
4.9017733485939	0.85244449245942
4.8961694920790	0.85244605037285
4.8905784339315	0.85244754106917
4.8850001303569	0.85244896454931
4.8794345377604	0.85245032082465
4.8738816127459	0.85245160991705
4.8683413121143	0.85245283185883
4.8628135928629	0.85245398669270
4.8572984121841	0.85245507447176
4.8517957274640	0.85245609525953
4.8463054962819	0.85245704912981
4.8408276764088	0.85245793616678
4.8353622258065	0.85245875646488
