#Parameters = {thARC=0.2; nARC=2.25; thsub=1; p=1; nSub=2.25}
#"Wavelength / um"	"T (302) [Real Part]"
#---------------------------------------
14.989622900000	0.85207102308700
14.937342202292	0.85207103997411
14.885424925521	0.85207105624249
14.833867293419	0.85207107190215
14.782665581854	0.85207108696304
14.731816117936	0.85207110143505
14.681315279138	0.85207111532801
14.631159492435	0.85207112865166
14.581345233463	0.85207114141571
14.531869025691	0.85207115362979
14.482727439614	0.85207116530345
14.433917091960	0.85207117644620
14.385434644914	0.85207118706748
14.337276805356	0.85207119717665
14.289440324118	0.85207120678301
14.241921995249	0.85207121589581
14.194718655303	0.85207122452422
14.147827182633	0.85207123267734
14.101244496707	0.85207124036421
14.054967557431	0.85207124759381
14.008993364486	0.85207125437505
13.963318956684	0.85207126071676
13.917941411328	0.85207126662773
13.872857843591	0.85207127211665
13.828065405904	0.85207127719218
13.783561287356	0.85207128186289
13.739342713107	0.85207128613728
13.695406943810	0.85207129002380
13.651751275046	0.85207129353083
13.608373036768	0.85207129666666
13.565269592760	0.85207129943954
13.522438340099	0.85207130185764
13.479876708633	0.85207130392906
13.437582160466	0.85207130566185
13.395552189455	0.85207130706398
13.353784320713	0.85207130814334
13.312276110124	0.85207130890778
13.271025143869	0.85207130936505
13.230029037952	0.85207130952287
13.189285437747	0.85207130938886
13.148792017544	0.85207130897059
13.108546480105	0.85207130827555
13.068546556234	0.85207130731118
13.028790004346	0.85207130608483
12.989274610052	0.85207130460381
12.949998185745	0.85207130287533
12.910958570198	0.85207130090656
12.872153628167	0.85207129870458
12.833581250000	0.85207129627642
12.795239351259	0.85207129362903
12.757125872340	0.85207129076930
12.719238778108	0.85207128770405
12.681576057530	0.85207128444004
12.644135723323	0.85207128098394
12.606915811606	0.85207127734238
12.569914381551	0.85207127352189
12.533129515050	0.85207126952898
12.496559316382	0.85207126537003
12.460201911887	0.85207126105142
12.424055449648	0.85207125657940
12.388118099174	0.85207125196020
12.352388051092	0.85207124719996
12.316863516845	0.85207124230476
12.281542728390	0.85207123728060
12.246423937908	0.85207123213344
12.211505417515	0.85207122686913
12.176785458976	0.85207122149351
12.142262373431	0.85207121601229
12.107934491115	0.85207121043118
12.073800161095	0.85207120475576
12.039857751004	0.85207119899158
12.006105646776	0.85207119314412
11.972542252396	0.85207118721879
11.939165989646	0.85207118122092
11.905975297855	0.85207117515581
11.872968633663	0.85207116902865
11.840144470774	0.85207116284459
11.807501299724	0.85207115660872
11.775037627651	0.85207115032604
11.742751978065	0.85207114400149
11.710642890625	0.85207113763998
11.678708920919	0.85207113124630
11.646948640249	0.85207112482522
11.615360635413	0.85207111838141
11.583943508501	0.85207111191951
11.552695876686	0.85207110544406
11.521616372022	0.85207109895956
11.490703641242	0.85207109247044
11.459956345566	0.85207108598107
11.429373160503	0.85207107949573
11.398952775665	0.85207107301867
11.368693894577	0.85207106655407
11.338595234493	0.85207106010602
11.308655526217	0.85207105367857
11.278873513920	0.85207104727571
11.249247954972	0.85207104090136
11.219777619760	0.85207103455936
11.190461291527	0.85207102825352
11.161297766195	0.85207102198756
11.132285852209	0.85207101576515
11.103424370370	0.85207100958990
11.074712153676	0.85207100346536
11.046148047163	0.85207099739500
11.017730907755	0.85207099138225
10.989459604106	0.85207098543047
10.961333016453	0.85207097954295
10.933350036470	0.85207097372294
10.905509567115	0.85207096797361
10.877810522496	0.85207096229809
10.850251827723	0.85207095669942
10.822832418773	0.85207095118060
10.795551242348	0.85207094574458
10.768407255747	0.85207094039423
10.741399426729	0.85207093513237
10.714526733381	0.85207092996175
10.687788163993	0.85207092488509
10.661182716927	0.85207091990502
10.634709400497	0.85207091502413
10.608367232838	0.85207091024494
10.582155241793	0.85207090556992
10.556072464789	0.85207090100149
10.530117948718	0.85207089654200
10.504290749825	0.85207089219374
10.478589933590	0.85207088795895
10.453014574616	0.85207088383982
10.427563756522	0.85207087983848
10.402236571825	0.85207087595700
10.377032121841	0.85207087219739
10.351949516575	0.85207086856162
10.326987874612	0.85207086505159
10.302146323024	0.85207086166915
10.277423997257	0.85207085841610
10.252820041040	0.85207085529419
10.228333606278	0.85207085230509
10.203963852961	0.85207084945044
10.179709949066	0.85207084673183
10.155571070461	0.85207084415079
10.131546400811	0.85207084170878
10.107635131490	0.85207083940724
10.083836461487	0.85207083724753
10.060149597315	0.85207083523097
10.036573752929	0.85207083335883
10.013108149633	0.85207083163234
9.9897520159947	0.85207083005264
9.9665045877660	0.85207082862086
9.9433651077944	0.85207082733806
9.9203328259431	0.85207082620526
9.8974069990096	0.85207082522341
9.8745868906456	0.85207082439345
9.8518717712783	0.85207082371623
9.8292609180328	0.85207082319257
9.8067536146549	0.85207082282323
9.7843491514360	0.85207082260896
9.7620468251384	0.85207082255040
9.7398459389214	0.85207082264820
9.7177458022690	0.85207082290293
9.6957457309185	0.85207082331512
9.6738450467893	0.85207082388526
9.6520430779137	0.85207082461379
9.6303391583681	0.85207082550110
9.6087326282051	0.85207082654755
9.5872228333866	0.85207082775343
9.5658091257179	0.85207082911901
9.5444908627826	0.85207083064450
9.5232674078780	0.85207083233007
9.5021381299525	0.85207083417585
9.4811024035421	0.85207083618192
9.4601596087094	0.85207083834832
9.4393091309824	0.85207084067505
9.4185503612944	0.85207084316208
9.3978826959248	0.85207084580930
9.3773055364404	0.85207084861660
9.3568182896380	0.85207085158380
9.3364203674868	0.85207085471070
9.3161111870727	0.85207085799705
9.2958901705426	0.85207086144255
9.2757567450495	0.85207086504687
9.2557103426984	0.85207086880966
9.2357504004929	0.85207087273049
9.2158763602828	0.85207087680893
9.1960876687117	0.85207088104449
9.1763837771656	0.85207088543663
9.1567641417227	0.85207088998482
9.1372282231027	0.85207089468843
9.1177754866180	0.85207089954685
9.0984054021244	0.85207090455940
9.0791174439733	0.85207090972538
9.0599110909640	0.85207091504403
9.0407858262967	0.85207092051459
9.0217411375263	0.85207092613623
9.0027765165165	0.85207093190812
8.9838914593947	0.85207093782936
8.9650854665072	0.85207094389906
8.9463580423754	0.85207095011624
8.9277086956522	0.85207095647994
8.9091369390788	0.85207096298914
8.8906422894425	0.85207096964279
8.8722242675348	0.85207097643981
8.8538823981099	0.85207098337909
8.8356162098438	0.85207099045949
8.8174252352941	0.85207099767984
8.7993090108600	0.85207100503893
8.7812670767428	0.85207101253553
8.7632989769073	0.85207102016838
8.7454042590432	0.85207102793619
8.7275824745269	0.85207103583763
8.7098331783847	0.85207104387136
8.6921559292549	0.85207105203600
8.6745502893519	0.85207106033015
8.6570158244297	0.85207106875236
8.6395521037464	0.85207107730119
8.6221587000288	0.85207108597515
8.6048351894374	0.85207109477272
8.5875811515325	0.85207110369237
8.5703961692396	0.85207111273253
8.5532798288160	0.85207112189162
8.5362317198178	0.85207113116802
8.5192514350668	0.85207114056010
8.5023385706183	0.85207115006619
8.4854927257288	0.85207115968462
8.4687135028249	0.85207116941366
8.4520005074711	0.85207117925161
8.4353533483399	0.85207118919669
8.4187716371806	0.85207119924715
8.4022549887892	0.85207120940117
8.3858030209790	0.85207121965695
8.3694153545505	0.85207123001265
8.3530916132627	0.85207124046641
8.3368314238042	0.85207125101635
8.3206344157646	0.85207126166058
8.3045002216066	0.85207127239717
8.2884284766381	0.85207128322420
8.2724188189845	0.85207129413971
8.2564708895621	0.85207130514172
8.2405843320506	0.85207131622826
8.2247587928669	0.85207132739730
8.2089939211391	0.85207133864684
8.1932893686800	0.85207134997482
8.1776447899618	0.85207136137920
8.1620598420909	0.85207137285790
8.1465341847826	0.85207138440883
8.1310674803363	0.85207139602989
8.1156593936113	0.85207140771897
8.1003095920022	0.85207141947394
8.0850177454153	0.85207143129264
8.0697835262450	0.85207144317293
8.0546066093498	0.85207145511263
8.0394866720300	0.85207146710956
8.0244233940043	0.85207147916152
8.0094164573871	0.85207149126631
7.9944655466667	0.85207150342171
7.9795703486825	0.85207151562548
7.9647305526036	0.85207152787539
7.9499458499072	0.85207154016918
7.9352159343568	0.85207155250459
7.9205405019815	0.85207156487936
7.9059192510549	0.85207157729120
7.8913518820742	0.85207158973782
7.8768380977404	0.85207160221693
7.8623776029373	0.85207161472622
7.8479701047120	0.85207162726337
7.8336153122550	0.85207163982607
7.8193129368805	0.85207165241200
7.8050626920073	0.85207166501880
7.7908642931393	0.85207167764416
7.7767174578470	0.85207169028571
7.7626219057483	0.85207170294110
7.7485773584906	0.85207171560799
7.7345835397317	0.85207172828401
7.7206401751223	0.85207174096678
7.7067469922879	0.85207175365395
7.6929037208109	0.85207176634314
7.6791100922131	0.85207177903196
7.6653658399386	0.85207179171805
7.6516706993364	0.85207180439902
7.6380244076433	0.85207181707247
7.6244267039674	0.85207182973603
7.6108773292714	0.85207184238731
7.5973760263558	0.85207185502392
7.5839225398432	0.85207186764346
7.5705166161616	0.85207188024355
7.5571580035291	0.85207189282179
7.5438464519376	0.85207190537579
7.5305817131374	0.85207191790317
7.5173635406219	0.85207193040153
7.5041916896120	0.85207194286848
7.4910659170415	0.85207195530165
7.4779859815415	0.85207196769863
7.4649516434263	0.85207198005706
7.4519626646781	0.85207199237455
7.4390188089330	0.85207200464872
7.4261198414664	0.85207201687720
7.4132655291790	0.85207202905763
7.4004556405826	0.85207204118762
7.3876899457861	0.85207205326483
7.3749682164822	0.85207206528689
7.3622902259332	0.85207207725146
7.3496557489581	0.85207208915618
7.3370645619187	0.85207210099872
7.3245164427071	0.85207211277674
7.3120111707317	0.85207212448791
7.2995485269053	0.85207213612990
7.2871282936315	0.85207214770040
7.2747502547925	0.85207215919711
7.2624141957364	0.85207217061772
7.2501199032648	0.85207218195994
7.2378671656205	0.85207219322148
7.2256557724753	0.85207220440007
7.2134855149182	0.85207221549344
7.2013561854432	0.85207222649932
7.1892675779376	0.85207223741548
7.1772194876706	0.85207224823967
7.1652117112811	0.85207225896966
7.1532440467669	0.85207226960323
7.1413162934731	0.85207228013818
7.1294282520809	0.85207229057230
7.1175797245964	0.85207230090340
7.1057705143399	0.85207231112932
7.0940004259347	0.85207232124789
7.0822692652965	0.85207233125695
7.0705768396226	0.85207234115438
7.0589229573817	0.85207235093803
7.0473074283028	0.85207236060580
7.0357300633654	0.85207237015558
7.0241906747891	0.85207237958529
7.0126890760234	0.85207238889286
7.0012250817375	0.85207239807623
6.9897985078107	0.85207240713334
6.9784091713222	0.85207241606217
6.9670568905415	0.85207242486071
6.9557414849188	0.85207243352694
6.9444627750753	0.85207244205890
6.9332205827937	0.85207245045460
6.9220147310090	0.85207245871209
6.9108450437990	0.85207246682944
6.8997113463751	0.85207247480472
6.8886134650735	0.85207248263603
6.8775512273457	0.85207249032147
6.8665244617499	0.85207249785918
6.8555329979419	0.85207250524731
6.8445766666667	0.85207251248401
6.8336552997493	0.85207251956748
6.8227687300865	0.85207252649590
6.8119167916383	0.85207253326750
6.8010993194192	0.85207253988051
6.7903161494904	0.85207254633319
6.7795671189507	0.85207255262381
6.7688520659291	0.85207255875066
6.7581708295762	0.85207256471207
6.7475232500563	0.85207257050635
6.7369091685393	0.85207257613187
6.7263284271932	0.85207258158700
6.7157808691756	0.85207258687012
6.7052663386267	0.85207259197966
6.6947846806610	0.85207259691404
6.6843357413601	0.85207260167172
6.6739193677649	0.85207260625118
6.6635354078684	0.85207261065092
6.6531837106081	0.85207261486944
6.6428641258586	0.85207261890531
6.6325765044248	0.85207262275707
6.6223206980340	0.85207262642331
6.6120965593295	0.85207262990264
6.6019039418630	0.85207263319369
6.5917427000879	0.85207263629511
6.5816126893524	0.85207263920558
6.5715137658922	0.85207264192379
6.5614457868243	0.85207264444846
6.5514086101399	0.85207264677835
6.5414020946978	0.85207264891222
6.5314261002179	0.85207265084886
6.5214804872743	0.85207265258708
6.5115651172893	0.85207265412573
6.5016798525266	0.85207265546368
6.4918245560849	0.85207265659980
6.4819990918919	0.85207265753302
6.4722033246978	0.85207265826227
6.4624371200690	0.85207265878651
6.4527003443823	0.85207265910473
6.4429928648184	0.85207265921595
6.4333145493562	0.85207265911920
6.4236652667667	0.85207265881354
6.4140448866068	0.85207265829807
6.4044532792138	0.85207265757190
6.3948903156997	0.85207265663416
6.3853558679446	0.85207265548403
6.3758498085921	0.85207265412070
6.3663720110427	0.85207265254338
6.3569223494487	0.85207265075133
6.3475006987084	0.85207264874380
6.3381069344609	0.85207264652010
6.3287409330800	0.85207264407956
6.3194025716695	0.85207264142151
6.3100917280572	0.85207263854535
6.3008082807902	0.85207263545048
6.2915521091291	0.85207263213632
6.2823230930427	0.85207262860234
6.2731211132036	0.85207262484801
6.2639460509820	0.85207262087286
6.2547977884415	0.85207261667643
6.2456762083333	0.85207261225828
6.2365811940919	0.85207260761801
6.2275126298297	0.85207260275523
6.2184704003319	0.85207259766961
6.2094543910522	0.85207259236082
6.2004644881075	0.85207258682856
6.1915005782734	0.85207258107257
6.1825625489792	0.85207257509262
6.1736502883031	0.85207256888848
6.1647636849681	0.85207256245999
6.1559026283368	0.85207255580698
6.1470670084068	0.85207254892933
6.1382567158067	0.85207254182694
6.1294716417910	0.85207253449974
6.1207116782360	0.85207252694770
6.1119767176351	0.85207251917079
6.1032666530945	0.85207251116904
6.0945813783289	0.85207250294249
6.0859207876573	0.85207249449120
6.0772847759984	0.85207248581529
6.0686732388664	0.85207247691488
6.0600860723671	0.85207246779012
6.0515231731934	0.85207245844121
6.0429844386212	0.85207244886836
6.0344697665056	0.85207243907181
6.0259790552764	0.85207242905183
6.0175122039342	0.85207241880873
6.0090691120465	0.85207240834283
6.0006496797438	0.85207239765448
5.9922538077154	0.85207238674408
5.9838813972056	0.85207237561204
5.9755323500100	0.85207236425880
5.9672065684713	0.85207235268484
5.9589039554760	0.85207234089064
5.9506244144502	0.85207232887675
5.9423678493558	0.85207231664371
5.9341341646873	0.85207230419211
5.9259232654675	0.85207229152256
5.9177350572444	0.85207227863571
5.9095694460871	0.85207226553223
5.9014263385827	0.85207225221280
5.8933056418321	0.85207223867817
5.8852072634472	0.85207222492907
5.8771311115468	0.85207221096630
5.8690770947533	0.85207219679066
5.8610451221896	0.85207218240300
5.8530351034752	0.85207216780418
5.8450469487229	0.85207215299508
5.8370805685358	0.85207213797664
5.8291358740035	0.85207212274981
5.8212127766990	0.85207210731555
5.8133111886756	0.85207209167488
5.8054310224632	0.85207207582883
5.7975721910656	0.85207205977845
5.7897346079567	0.85207204352483
5.7819181870781	0.85207202706910
5.7741228428351	0.85207201041238
5.7663484900942	0.85207199355584
5.7585950441798	0.85207197650069
5.7508624208709	0.85207195924814
5.7431505363985	0.85207194179945
5.7354593074421	0.85207192415588
5.7277886511272	0.85207190631874
5.7201384850219	0.85207188828936
5.7125087271341	0.85207187006909
5.7048992959087	0.85207185165932
5.6973101102242	0.85207183306144
5.6897410893908	0.85207181427690
5.6821921531463	0.85207179530715
5.6746632216544	0.85207177615367
5.6671542155009	0.85207175681798
5.6596650556919	0.85207173730161
5.6521956636501	0.85207171760612
5.6447459612126	0.85207169773310
5.6373158706281	0.85207167768415
5.6299053145540	0.85207165746092
5.6225142160540	0.85207163706506
5.6151424985952	0.85207161649825
5.6077900860456	0.85207159576222
5.6004569026714	0.85207157485868
5.5931428731343	0.85207155378939
5.5858479224893	0.85207153255615
5.5785719761816	0.85207151116074
5.5713149600446	0.85207148960501
5.5640768002970	0.85207146789079
5.5568574235403	0.85207144601998
5.5496567567568	0.85207142399445
5.5424747273063	0.85207140181614
5.5353112629247	0.85207137948699
5.5281662917204	0.85207135700896
5.5210397421731	0.85207133438404
5.5139315431304	0.85207131161423
5.5068416238060	0.85207128870158
5.4997699137773	0.85207126564814
5.4927163429828	0.85207124245597
5.4856808417200	0.85207121912717
5.4786633406433	0.85207119566387
5.4716637707611	0.85207117206820
5.4646820634342	0.85207114834231
5.4577181503732	0.85207112448838
5.4507719636364	0.85207110050862
5.4438434356274	0.85207107640524
5.4369324990932	0.85207105218047
5.4300390871219	0.85207102783659
5.4231631331404	0.85207100337585
5.4163045709124	0.85207097880057
5.4094633345363	0.85207095411304
5.4026393584430	0.85207092931561
5.3958325773938	0.85207090441062
5.3890429264785	0.85207087940045
5.3822703411131	0.85207085428747
5.3755147570378	0.85207082907410
5.3687761103152	0.85207080376275
5.3620543373278	0.85207077835587
5.3553493747767	0.85207075285590
5.3486611596789	0.85207072726532
5.3419896293656	0.85207070158662
5.3353347214807	0.85207067582229
5.3286963739780	0.85207064997485
5.3220745251198	0.85207062404685
5.3154691134752	0.85207059804083
5.3088800779175	0.85207057195934
5.3023073576229	0.85207054580498
5.2957508920685	0.85207051958033
5.2892106210303	0.85207049328799
5.2826864845815	0.85207046693059
5.2761784230905	0.85207044051077
5.2696863772192	0.85207041403115
5.2632102879213	0.85207038749441
5.2567500964405	0.85207036090322
5.2503057443082	0.85207033426025
5.2438771733427	0.85207030756821
5.2374643256464	0.85207028082979
5.2310671436050	0.85207025404772
5.2246855698850	0.85207022722472
5.2183195474326	0.85207020036354
5.2119690194715	0.85207017346691
5.2056339295016	0.85207014653760
5.1993142212973	0.85207011957838
5.1930098389052	0.85207009259203
5.1867207266436	0.85207006558132
5.1804468290997	0.85207003854906
5.1741880911288	0.85207001149804
5.1679444578521	0.85206998443109
5.1617158746556	0.85206995735101
5.1555022871883	0.85206993026063
5.1493036413604	0.85206990316278
5.1431198833419	0.85206987606031
5.1369509595613	0.85206984895605
5.1307968167037	0.85206982185286
5.1246574017094	0.85206979475359
5.1185326617722	0.85206976766111
5.1124225443383	0.85206974057827
5.1063269971044	0.85206971350796
5.1002459680163	0.85206968645304
5.0941794052676	0.85206965941639
5.0881272572980	0.85206963240089
5.0820894727920	0.85206960540942
5.0760660006773	0.85206957844488
5.0700567901235	0.85206955151014
5.0640617905405	0.85206952460811
5.0580809515775	0.85206949774166
5.0521142231210	0.85206947091370
5.0461615552937	0.85206944412711
5.0402228984533	0.85206941738479
5.0342982031906	0.85206939068963
5.0283874203287	0.85206936404453
5.0224905009214	0.85206933745237
5.0166073962517	0.85206931091605
5.0107380578305	0.85206928443845
5.0048824373957	0.85206925802246
4.9990404869101	0.85206923167096
4.9932121585610	0.85206920538683
4.9873974047579	0.85206917917296
4.9815961781323	0.85206915303221
4.9758084315353	0.85206912696745
4.9700341180371	0.85206910098155
4.9642731909256	0.85206907507737
4.9585256037049	0.85206904925776
4.9527913100942	0.85206902352557
4.9470702640264	0.85206899788365
4.9413624196473	0.85206897233482
4.9356677313138	0.85206894688192
4.9299861535932	0.85206892152777
4.9243176412615	0.85206889627518
4.9186621493027	0.85206887112696
4.9130196329072	0.85206884608590
4.9073900474709	0.85206882115479
4.9017733485939	0.85206879633641
4.8961694920790	0.85206877163352
4.8905784339315	0.85206874704888
4.8850001303569	0.85206872258525
4.8794345377604	0.85206869824534
4.8738816127459	0.85206867403188
4.8683413121143	0.85206864994760
4.8628135928629	0.85206862599517
4.8572984121841	0.85206860217729
4.8517957274640	0.85206857849663
4.8463054962819	0.85206855495585
4.8408276764088	0.85206853155759
4.8353622258065	0.85206850830447
