#Parameters = {thARC=0.4; nARC=2.25; thsub=1; p=1; nSub=2.25}
#"Wavelength / um"	"T (303) [Real Part]"
#---------------------------------------
14.989622900000	0.85207095980067
14.937342202292	0.85207661572520
14.885424925521	0.85208208266958
14.833867293419	0.85208736387283
14.782665581854	0.85209246254216
14.731816117936	0.85209738185313
14.681315279138	0.85210212494971
14.631159492435	0.85210669494443
14.581345233463	0.85211109491850
14.531869025691	0.85211532792191
14.482727439614	0.85211939697355
14.433917091960	0.85212330506132
14.385434644914	0.85212705514231
14.337276805356	0.85213065014284
14.289440324118	0.85213409295865
14.241921995249	0.85213738645499
14.194718655303	0.85214053346675
14.147827182633	0.85214353679862
14.101244496707	0.85214639922517
14.054967557431	0.85214912349103
14.008993364486	0.85215171231097
13.963318956684	0.85215416837009
13.917941411328	0.85215649432391
13.872857843591	0.85215869279853
13.828065405904	0.85216076639073
13.783561287356	0.85216271766816
13.739342713107	0.85216454916945
13.695406943810	0.85216626340433
13.651751275046	0.85216786285382
13.608373036768	0.85216934997032
13.565269592760	0.85217072717778
13.522438340099	0.85217199687185
13.479876708633	0.85217316141999
13.437582160466	0.85217422316165
13.395552189455	0.85217518440840
13.353784320713	0.85217604744408
13.312276110124	0.85217681452493
13.271025143869	0.85217748787978
13.230029037952	0.85217806971016
13.189285437747	0.85217856219045
13.148792017544	0.85217896746806
13.108546480105	0.85217928766357
13.068546556234	0.85217952487084
13.028790004346	0.85217968115724
12.989274610052	0.85217975856374
12.949998185745	0.85217975910509
12.910958570198	0.85217968476996
12.872153628167	0.85217953752111
12.833581250000	0.85217931929556
12.795239351259	0.85217903200469
12.757125872340	0.85217867753447
12.719238778108	0.85217825774554
12.681576057530	0.85217777447345
12.644135723323	0.85217722952874
12.606915811606	0.85217662469716
12.569914381551	0.85217596173979
12.533129515050	0.85217524239323
12.496559316382	0.85217446836971
12.460201911887	0.85217364135733
12.424055449648	0.85217276302014
12.388118099174	0.85217183499834
12.352388051092	0.85217085890846
12.316863516845	0.85216983634348
12.281542728390	0.85216876887301
12.246423937908	0.85216765804347
12.211505417515	0.85216650537822
12.176785458976	0.85216531237775
12.142262373431	0.85216408051984
12.107934491115	0.85216281125969
12.073800161095	0.85216150603015
12.039857751004	0.85216016624181
12.006105646776	0.85215879328322
11.972542252396	0.85215738852102
11.939165989646	0.85215595330013
11.905975297855	0.85215448894389
11.872968633663	0.85215299675425
11.840144470774	0.85215147801191
11.807501299724	0.85214993397651
11.775037627651	0.85214836588676
11.742751978065	0.85214677496065
11.710642890625	0.85214516239558
11.678708920919	0.85214352936855
11.646948640249	0.85214187703630
11.615360635413	0.85214020653549
11.583943508501	0.85213851898286
11.552695876686	0.85213681547541
11.521616372022	0.85213509709055
11.490703641242	0.85213336488626
11.459956345566	0.85213161990128
11.429373160503	0.85212986315524
11.398952775665	0.85212809564886
11.368693894577	0.85212631836408
11.338595234493	0.85212453226428
11.308655526217	0.85212273829436
11.278873513920	0.85212093738098
11.249247954972	0.85211913043270
11.219777619760	0.85211731834014
11.190461291527	0.85211550197612
11.161297766195	0.85211368219589
11.132285852209	0.85211185983721
11.103424370370	0.85211003572059
11.074712153676	0.85210821064940
11.046148047163	0.85210638541005
11.017730907755	0.85210456077218
10.989459604106	0.85210273748876
10.961333016453	0.85210091629631
10.933350036470	0.85209909791504
10.905509567115	0.85209728304902
10.877810522496	0.85209547238631
10.850251827723	0.85209366659916
10.822832418773	0.85209186634416
10.795551242348	0.85209007226238
10.768407255747	0.85208828497957
10.741399426729	0.85208650510626
10.714526733381	0.85208473323799
10.687788163993	0.85208296995541
10.661182716927	0.85208121582447
10.634709400497	0.85207947139657
10.608367232838	0.85207773720870
10.582155241793	0.85207601378365
10.556072464789	0.85207430163010
10.530117948718	0.85207260124281
10.504290749825	0.85207091310279
10.478589933590	0.85206923767743
10.453014574616	0.85206757542066
10.427563756522	0.85206592677311
10.402236571825	0.85206429216227
10.377032121841	0.85206267200262
10.351949516575	0.85206106669582
10.326987874612	0.85205947663081
10.302146323024	0.85205790218403
10.277423997257	0.85205634371951
10.252820041040	0.85205480158904
10.228333606278	0.85205327613236
10.203963852961	0.85205176767724
10.179709949066	0.85205027653968
10.155571070461	0.85204880302404
10.131546400811	0.85204734742320
10.107635131490	0.85204591001870
10.083836461487	0.85204449108086
10.060149597315	0.85204309086898
10.036573752929	0.85204170963145
10.013108149633	0.85204034760591
9.9897520159947	0.85203900501937
9.9665045877660	0.85203768208838
9.9433651077944	0.85203637901919
9.9203328259431	0.85203509600782
9.8974069990096	0.85203383324029
9.8745868906456	0.85203259089269
9.8518717712783	0.85203136913138
9.8292609180328	0.85203016811308
9.8067536146549	0.85202898798505
9.7843491514360	0.85202782888518
9.7620468251384	0.85202669094218
9.7398459389214	0.85202557427569
9.7177458022690	0.85202447899642
9.6957457309185	0.85202340520628
9.6738450467893	0.85202235299853
9.6520430779137	0.85202132245791
9.6303391583681	0.85202031366075
9.6087326282051	0.85201932667514
9.5872228333866	0.85201836156105
9.5658091257179	0.85201741837043
9.5444908627826	0.85201649714739
9.5232674078780	0.85201559792830
9.5021381299525	0.85201472074192
9.4811024035421	0.85201386560955
9.4601596087094	0.85201303254513
9.4393091309824	0.85201222155538
9.4185503612944	0.85201143263993
9.3978826959248	0.85201066579144
9.3773055364404	0.85200992099571
9.3568182896380	0.85200919823185
9.3364203674868	0.85200849747234
9.3161111870727	0.85200781868321
9.2958901705426	0.85200716182412
9.2757567450495	0.85200652684850
9.2557103426984	0.85200591370368
9.2357504004929	0.85200532233096
9.2158763602828	0.85200475266581
9.1960876687117	0.85200420463791
9.1763837771656	0.85200367817130
9.1567641417227	0.85200317318450
9.1372282231027	0.85200268959063
9.1177754866180	0.85200222729748
9.0984054021244	0.85200178620768
9.0791174439733	0.85200136621880
9.0599110909640	0.85200096722341
9.0407858262967	0.85200058910927
9.0217411375263	0.85200023175938
9.0027765165165	0.85199989505211
8.9838914593947	0.85199957886131
8.9650854665072	0.85199928305642
8.9463580423754	0.85199900750256
8.9277086956522	0.85199875206067
8.9091369390788	0.85199851658756
8.8906422894425	0.85199830093608
8.8722242675348	0.85199810495517
8.8538823981099	0.85199792848997
8.8356162098438	0.85199777138196
8.8174252352941	0.85199763346902
8.7993090108600	0.85199751458555
8.7812670767428	0.85199741456253
8.7632989769073	0.85199733322770
8.7454042590432	0.85199727040558
8.7275824745269	0.85199722591758
8.7098331783847	0.85199719958214
8.6921559292549	0.85199719121476
8.6745502893519	0.85199720062815
8.6570158244297	0.85199722763229
8.6395521037464	0.85199727203454
8.6221587000288	0.85199733363970
8.6048351894374	0.85199741225013
8.5875811515325	0.85199750766585
8.5703961692396	0.85199761968459
8.5532798288160	0.85199774810190
8.5362317198178	0.85199789271122
8.5192514350668	0.85199805330401
8.5023385706183	0.85199822966977
8.4854927257288	0.85199842159618
8.4687135028249	0.85199862886916
8.4520005074711	0.85199885127292
8.4353533483399	0.85199908859012
8.4187716371806	0.85199934060187
8.4022549887892	0.85199960708785
8.3858030209790	0.85199988782639
8.3694153545505	0.85200018259453
8.3530916132627	0.85200049116812
8.3368314238042	0.85200081332186
8.3206344157646	0.85200114882942
8.3045002216066	0.85200149746347
8.2884284766381	0.85200185899579
8.2724188189845	0.85200223319732
8.2564708895621	0.85200261983824
8.2405843320506	0.85200301868804
8.2247587928669	0.85200342951559
8.2089939211391	0.85200385208919
8.1932893686800	0.85200428617669
8.1776447899618	0.85200473154548
8.1620598420909	0.85200518796264
8.1465341847826	0.85200565519494
8.1310674803363	0.85200613300894
8.1156593936113	0.85200662117103
8.1003095920022	0.85200711944751
8.0850177454153	0.85200762760465
8.0697835262450	0.85200814540876
8.0546066093498	0.85200867262621
8.0394866720300	0.85200920902355
8.0244233940043	0.85200975436751
8.0094164573871	0.85201030842510
7.9944655466667	0.85201087096364
7.9795703486825	0.85201144175084
7.9647305526036	0.85201202055482
7.9499458499072	0.85201260714422
7.9352159343568	0.85201320128818
7.9205405019815	0.85201380275645
7.9059192510549	0.85201441131944
7.8913518820742	0.85201502674823
7.8768380977404	0.85201564881466
7.8623776029373	0.85201627729134
7.8479701047120	0.85201691195176
7.8336153122550	0.85201755257026
7.8193129368805	0.85201819892215
7.8050626920073	0.85201885078370
7.7908642931393	0.85201950793221
7.7767174578470	0.85202017014607
7.7626219057483	0.85202083720476
7.7485773584906	0.85202150888893
7.7345835397317	0.85202218498043
7.7206401751223	0.85202286526234
7.7067469922879	0.85202354951905
7.6929037208109	0.85202423753622
7.6791100922131	0.85202492910092
7.6653658399386	0.85202562400159
7.6516706993364	0.85202632202811
7.6380244076433	0.85202702297182
7.6244267039674	0.85202772662557
7.6108773292714	0.85202843278377
7.5973760263558	0.85202914124237
7.5839225398432	0.85202985179896
7.5705166161616	0.85203056425274
7.5571580035291	0.85203127840460
7.5438464519376	0.85203199405713
7.5305817131374	0.85203271101465
7.5173635406219	0.85203342908323
7.5041916896120	0.85203414807075
7.4910659170415	0.85203486778690
7.4779859815415	0.85203558804321
7.4649516434263	0.85203630865308
7.4519626646781	0.85203702943182
7.4390188089330	0.85203775019665
7.4261198414664	0.85203847076675
7.4132655291790	0.85203919096324
7.4004556405826	0.85203991060927
7.3876899457861	0.85204062952999
7.3749682164822	0.85204134755257
7.3622902259332	0.85204206450625
7.3496557489581	0.85204278022236
7.3370645619187	0.85204349453430
7.3245164427071	0.85204420727760
7.3120111707317	0.85204491828992
7.2995485269053	0.85204562741107
7.2871282936315	0.85204633448302
7.2747502547925	0.85204703934992
7.2624141957364	0.85204774185813
7.2501199032648	0.85204844185622
7.2378671656205	0.85204913919497
7.2256557724753	0.85204983372741
7.2134855149182	0.85205052530882
7.2013561854432	0.85205121379674
7.1892675779376	0.85205189905100
7.1772194876706	0.85205258093368
7.1652117112811	0.85205325930920
7.1532440467669	0.85205393404425
7.1413162934731	0.85205460500784
7.1294282520809	0.85205527207131
7.1175797245964	0.85205593510834
7.1057705143399	0.85205659399491
7.0940004259347	0.85205724860938
7.0822692652965	0.85205789883243
7.0705768396226	0.85205854454711
7.0589229573817	0.85205918563882
7.0473074283028	0.85205982199534
7.0357300633654	0.85206045350678
7.0241906747891	0.85206108006566
7.0126890760234	0.85206170156683
7.0012250817375	0.85206231790755
6.9897985078107	0.85206292898742
6.9784091713222	0.85206353470844
6.9670568905415	0.85206413497498
6.9557414849188	0.85206472969377
6.9444627750753	0.85206531877392
6.9332205827937	0.85206590212692
6.9220147310090	0.85206647966663
6.9108450437990	0.85206705130926
6.8997113463751	0.85206761697340
6.8886134650735	0.85206817658001
6.8775512273457	0.85206873005237
6.8665244617499	0.85206927731615
6.8555329979419	0.85206981829935
6.8445766666667	0.85207035293232
6.8336552997493	0.85207088114773
6.8227687300865	0.85207140288061
6.8119167916383	0.85207191806829
6.8010993194192	0.85207242665042
6.7903161494904	0.85207292856895
6.7795671189507	0.85207342376814
6.7688520659291	0.85207391219456
6.7581708295762	0.85207439379702
6.7475232500563	0.85207486852663
6.7369091685393	0.85207533633676
6.7263284271932	0.85207579718303
6.7157808691756	0.85207625102330
6.7052663386267	0.85207669781767
6.6947846806610	0.85207713752844
6.6843357413601	0.85207757012014
6.6739193677649	0.85207799555948
6.6635354078684	0.85207841381535
6.6531837106081	0.85207882485883
6.6428641258586	0.85207922866312
6.6325765044248	0.85207962520360
6.6223206980340	0.85208001445775
6.6120965593295	0.85208039640518
6.6019039418630	0.85208077102760
6.5917427000879	0.85208113830877
6.5816126893524	0.85208149823457
6.5715137658922	0.85208185079289
6.5614457868243	0.85208219597368
6.5514086101399	0.85208253376889
6.5414020946978	0.85208286417249
6.5314261002179	0.85208318718043
6.5214804872743	0.85208350279061
6.5115651172893	0.85208381100291
6.5016798525266	0.85208411181912
6.4918245560849	0.85208440524296
6.4819990918919	0.85208469128003
6.4722033246978	0.85208496993781
6.4624371200690	0.85208524122565
6.4527003443823	0.85208550515472
6.4429928648184	0.85208576173802
6.4333145493562	0.85208601099034
6.4236652667667	0.85208625292827
6.4140448866068	0.85208648757014
6.4044532792138	0.85208671493600
6.3948903156997	0.85208693504766
6.3853558679446	0.85208714792859
6.3758498085921	0.85208735360395
6.3663720110427	0.85208755210055
6.3569223494487	0.85208774344684
6.3475006987084	0.85208792767287
6.3381069344609	0.85208810481027
6.3287409330800	0.85208827489226
6.3194025716695	0.85208843795358
6.3100917280572	0.85208859403051
6.3008082807902	0.85208874316081
6.2915521091291	0.85208888538372
6.2823230930427	0.85208902073995
6.2731211132036	0.85208914927161
6.2639460509820	0.85208927102224
6.2547977884415	0.85208938603675
6.2456762083333	0.85208949436141
6.2365811940919	0.85208959604384
6.2275126298297	0.85208969113294
6.2184704003319	0.85208977967892
6.2094543910522	0.85208986173325
6.2004644881075	0.85208993734865
6.1915005782734	0.85209000657902
6.1825625489792	0.85209006947949
6.1736502883031	0.85209012610633
6.1647636849681	0.85209017651697
6.1559026283368	0.85209022076994
6.1470670084068	0.85209025892487
6.1382567158067	0.85209029104245
6.1294716417910	0.85209031718444
6.1207116782360	0.85209033741359
6.1119767176351	0.85209035179364
6.1032666530945	0.85209036038931
6.0945813783289	0.85209036326628
6.0859207876573	0.85209036049111
6.0772847759984	0.85209035213127
6.0686732388664	0.85209033825512
6.0600860723671	0.85209031893183
6.0515231731934	0.85209029423141
6.0429844386212	0.85209026422464
6.0344697665056	0.85209022898308
6.0259790552764	0.85209018857904
6.0175122039342	0.85209014308554
6.0090691120465	0.85209009257629
6.0006496797438	0.85209003712567
5.9922538077154	0.85208997680869
5.9838813972056	0.85208991170100
5.9755323500100	0.85208984187881
5.9672065684713	0.85208976741894
5.9589039554760	0.85208968839870
5.9506244144502	0.85208960489596
5.9423678493558	0.85208951698906
5.9341341646873	0.85208942475682
5.9259232654675	0.85208932827848
5.9177350572444	0.85208922763372
5.9095694460871	0.85208912290260
5.9014263385827	0.85208901416556
5.8933056418321	0.85208890150338
5.8852072634472	0.85208878499714
5.8771311115468	0.85208866472826
5.8690770947533	0.85208854077838
5.8610451221896	0.85208841322942
5.8530351034752	0.85208828216351
5.8450469487229	0.85208814766299
5.8370805685358	0.85208800981036
5.8291358740035	0.85208786868829
5.8212127766990	0.85208772437955
5.8133111886756	0.85208757696705
5.8054310224632	0.85208742653374
5.7975721910656	0.85208727316268
5.7897346079567	0.85208711693691
5.7819181870781	0.85208695793952
5.7741228428351	0.85208679625358
5.7663484900942	0.85208663196211
5.7585950441798	0.85208646514810
5.7508624208709	0.85208629589444
5.7431505363985	0.85208612428393
5.7354593074421	0.85208595039925
5.7277886511272	0.85208577432292
5.7201384850219	0.85208559613732
5.7125087271341	0.85208541592461
5.7048992959087	0.85208523376677
5.6973101102242	0.85208504974552
5.6897410893908	0.85208486394237
5.6821921531463	0.85208467643852
5.6746632216544	0.85208448731489
5.6671542155009	0.85208429665209
5.6596650556919	0.85208410453039
5.6521956636501	0.85208391102971
5.6447459612126	0.85208371622961
5.6373158706281	0.85208352020922
5.6299053145540	0.85208332304730
5.6225142160540	0.85208312482216
5.6151424985952	0.85208292561165
5.6077900860456	0.85208272549315
5.6004569026714	0.85208252454359
5.5931428731343	0.85208232283933
5.5858479224893	0.85208212045627
5.5785719761816	0.85208191746972
5.5713149600446	0.85208171395445
5.5640768002970	0.85208150998465
5.5568574235403	0.85208130563392
5.5496567567568	0.85208110097523
5.5424747273063	0.85208089608095
5.5353112629247	0.85208069102279
5.5281662917204	0.85208048587178
5.5210397421731	0.85208028069831
5.5139315431304	0.85208007557204
5.5068416238060	0.85207987056196
5.4997699137773	0.85207966573631
5.4927163429828	0.85207946116260
5.4856808417200	0.85207925690757
5.4786633406433	0.85207905303723
5.4716637707611	0.85207884961677
5.4646820634342	0.85207864671061
5.4577181503732	0.85207844438234
5.4507719636364	0.85207824269475
5.4438434356274	0.85207804170977
5.4369324990932	0.85207784148850
5.4300390871219	0.85207764209118
5.4231631331404	0.85207744357717
5.4163045709124	0.85207724600493
5.4094633345363	0.85207704943205
5.4026393584430	0.85207685391520
5.3958325773938	0.85207665951013
5.3890429264785	0.85207646627165
5.3822703411131	0.85207627425365
5.3755147570378	0.85207608350906
5.3687761103152	0.85207589408984
5.3620543373278	0.85207570604698
5.3553493747767	0.85207551943052
5.3486611596789	0.85207533428947
5.3419896293656	0.85207515067187
5.3353347214807	0.85207496862473
5.3286963739780	0.85207478819407
5.3220745251198	0.85207460942488
5.3154691134752	0.85207443236111
5.3088800779175	0.85207425704568
5.3023073576229	0.85207408352048
5.2957508920685	0.85207391182631
5.2892106210303	0.85207374200296
5.2826864845815	0.85207357408912
5.2761784230905	0.85207340812243
5.2696863772192	0.85207324413946
5.2632102879213	0.85207308217568
5.2567500964405	0.85207292226549
5.2503057443082	0.85207276444220
5.2438771733427	0.85207260873803
5.2374643256464	0.85207245518408
5.2310671436050	0.85207230381038
5.2246855698850	0.85207215464585
5.2183195474326	0.85207200771828
5.2119690194715	0.85207186305437
5.2056339295016	0.85207172067971
5.1993142212973	0.85207158061877
5.1930098389052	0.85207144289490
5.1867207266436	0.85207130753033
5.1804468290997	0.85207117454619
5.1741880911288	0.85207104396246
5.1679444578521	0.85207091579804
5.1617158746556	0.85207079007068
5.1555022871883	0.85207066679702
5.1493036413604	0.85207054599257
5.1431198833419	0.85207042767174
5.1369509595613	0.85207031184780
5.1307968167037	0.85207019853293
5.1246574017094	0.85207008773817
5.1185326617722	0.85206997947346
5.1124225443383	0.85206987374762
5.1063269971044	0.85206977056838
5.1002459680163	0.85206966994234
5.0941794052676	0.85206957187501
5.0881272572980	0.85206947637081
5.0820894727920	0.85206938343305
5.0760660006773	0.85206929306395
5.0700567901235	0.85206920526465
5.0640617905405	0.85206912003520
5.0580809515775	0.85206903737458
5.0521142231210	0.85206895728070
5.0461615552937	0.85206887975040
5.0402228984533	0.85206880477944
5.0342982031906	0.85206873236256
5.0283874203287	0.85206866249342
5.0224905009214	0.85206859516465
5.0166073962517	0.85206853036786
5.0107380578305	0.85206846809361
5.0048824373957	0.85206840833144
4.9990404869101	0.85206835106990
4.9932121585610	0.85206829629652
4.9873974047579	0.85206824399782
4.9815961781323	0.85206819415935
4.9758084315353	0.85206814676569
4.9700341180371	0.85206810180043
4.9642731909256	0.85206805924621
4.9585256037049	0.85206801908471
4.9527913100942	0.85206798129668
4.9470702640264	0.85206794586194
4.9413624196473	0.85206791275938
4.9356677313138	0.85206788196699
4.9299861535932	0.85206785346185
4.9243176412615	0.85206782722018
4.9186621493027	0.85206780321728
4.9130196329072	0.85206778142762
4.9073900474709	0.85206776182482
4.9017733485939	0.85206774438163
4.8961694920790	0.85206772907001
4.8905784339315	0.85206771586107
4.8850001303569	0.85206770472514
4.8794345377604	0.85206769563175
4.8738816127459	0.85206768854967
4.8683413121143	0.85206768344689
4.8628135928629	0.85206768029066
4.8572984121841	0.85206767904750
4.8517957274640	0.85206767968320
4.8463054962819	0.85206768216286
4.8408276764088	0.85206768645087
4.8353622258065	0.85206769251096
