#Parameters = {thARC=1; nARC=2.5; thsub=1; p=1; nSub=2.25}
#"Wavelength / um"	"T (312) [Real Part]"
#---------------------------------------
14.989622900000	0.79566780059939
14.937342202292	0.79544562463762
14.885424925521	0.79522453030789
14.833867293419	0.79500452784249
14.782665581854	0.79478562740316
14.731816117936	0.79456783908082
14.681315279138	0.79435117289550
14.631159492435	0.79413563879610
14.581345233463	0.79392124666031
14.531869025691	0.79370800629441
14.482727439614	0.79349592743316
14.433917091960	0.79328501973966
14.385434644914	0.79307529280521
14.337276805356	0.79286675614920
14.289440324118	0.79265941921897
14.241921995249	0.79245329138972
14.194718655303	0.79224838196438
14.147827182633	0.79204470017353
14.101244496707	0.79184225517527
14.054967557431	0.79164105605514
14.008993364486	0.79144111182604
13.963318956684	0.79124243142813
13.917941411328	0.79104502372875
13.872857843591	0.79084889752233
13.828065405904	0.79065406153037
13.783561287356	0.79046052440129
13.739342713107	0.79026829471043
13.695406943810	0.79007738095997
13.651751275046	0.78988779157885
13.608373036768	0.78969953492276
13.565269592760	0.78951261927405
13.522438340099	0.78932705284171
13.479876708633	0.78914284376130
13.437582160466	0.78896000009494
13.395552189455	0.78877852983128
13.353784320713	0.78859844088541
13.312276110124	0.78841974109889
13.271025143869	0.78824243823972
13.230029037952	0.78806654000228
13.189285437747	0.78789205400733
13.148792017544	0.78771898780198
13.108546480105	0.78754734885972
13.068546556234	0.78737714458035
13.028790004346	0.78720838228999
12.989274610052	0.78704106924109
12.949998185745	0.78687521261241
12.910958570198	0.78671081950901
12.872153628167	0.78654789696226
12.833581250000	0.78638645192986
12.795239351259	0.78622649129579
12.757125872340	0.78606802187039
12.719238778108	0.78591105039031
12.681576057530	0.78575558351853
12.644135723323	0.78560162784439
12.606915811606	0.78544918988359
12.569914381551	0.78529827607823
12.533129515050	0.78514889279679
12.496559316382	0.78500104633416
12.460201911887	0.78485474291166
12.424055449648	0.78470998867710
12.388118099174	0.78456678970472
12.352388051092	0.78442515199532
12.316863516845	0.78428508147617
12.281542728390	0.78414658400114
12.246423937908	0.78400966535066
12.211505417515	0.78387433123177
12.176785458976	0.78374058727816
12.142262373431	0.78360843905019
12.107934491115	0.78347789203491
12.073800161095	0.78334895164611
12.039857751004	0.78322162322436
12.006105646776	0.78309591203702
11.972542252396	0.78297182327828
11.939165989646	0.78284936206921
11.905975297855	0.78272853345778
11.872968633663	0.78260934241889
11.840144470774	0.78249179385445
11.807501299724	0.78237589259334
11.775037627651	0.78226164339154
11.742751978065	0.78214905093208
11.710642890625	0.78203811982512
11.678708920919	0.78192885460801
11.646948640249	0.78182125974528
11.615360635413	0.78171533962870
11.583943508501	0.78161109857733
11.552695876686	0.78150854083753
11.521616372022	0.78140767058303
11.490703641242	0.78130849191494
11.459956345566	0.78121100886181
11.429373160503	0.78111522537966
11.398952775665	0.78102114535199
11.368693894577	0.78092877258988
11.338595234493	0.78083811083196
11.308655526217	0.78074916374449
11.278873513920	0.78066193492139
11.249247954972	0.78057642788426
11.219777619760	0.78049264608243
11.190461291527	0.78041059289298
11.161297766195	0.78033027162080
11.132285852209	0.78025168549860
11.103424370370	0.78017483768696
11.074712153676	0.78009973127437
11.046148047163	0.78002636927721
11.017730907755	0.77995475463987
10.989459604106	0.77988489023471
10.961333016453	0.77981677886212
10.933350036470	0.77975042325054
10.905509567115	0.77968582605649
10.877810522496	0.77962298986463
10.850251827723	0.77956191718774
10.822832418773	0.77950261046678
10.795551242348	0.77944507207089
10.768407255747	0.77938930429745
10.741399426729	0.77933530937208
10.714526733381	0.77928308944867
10.687788163993	0.77923264660940
10.661182716927	0.77918398286479
10.634709400497	0.77913710015367
10.608367232838	0.77909200034325
10.582155241793	0.77904868522910
10.556072464789	0.77900715653520
10.530117948718	0.77896741591396
10.504290749825	0.77892946494618
10.478589933590	0.77889330514116
10.453014574616	0.77885893793663
10.427563756522	0.77882636469881
10.402236571825	0.77879558672242
10.377032121841	0.77876660523066
10.351949516575	0.77873942137526
10.326987874612	0.77871403623648
10.302146323024	0.77869045082311
10.277423997257	0.77866866607247
10.252820041040	0.77864868285045
10.228333606278	0.77863050195147
10.203963852961	0.77861412409855
10.179709949066	0.77859954994322
10.155571070461	0.77858678006564
10.131546400811	0.77857581497449
10.107635131490	0.77856665510704
10.083836461487	0.77855930082913
10.060149597315	0.77855375243519
10.036573752929	0.77855001014818
10.013108149633	0.77854807411965
9.9897520159947	0.77854794442972
9.9665045877660	0.77854962108704
9.9433651077944	0.77855310402883
9.9203328259431	0.77855839312084
9.8974069990096	0.77856548815739
9.8745868906456	0.77857438886127
9.8518717712783	0.77858509488385
9.8292609180328	0.77859760580496
9.8067536146549	0.77861192113294
9.7843491514360	0.77862804030463
9.7620468251384	0.77864596268531
9.7398459389214	0.77866568756874
9.7177458022690	0.77868721417711
9.6957457309185	0.77871054166103
9.6738450467893	0.77873566909953
9.6520430779137	0.77876259550000
9.6303391583681	0.77879131979824
9.6087326282051	0.77882184085838
9.5872228333866	0.77885415747287
9.5658091257179	0.77888826836250
9.5444908627826	0.77892417217632
9.5232674078780	0.77896186749167
9.5021381299525	0.77900135281410
9.4811024035421	0.77904262657743
9.4601596087094	0.77908568714362
9.4393091309824	0.77913053280283
9.4185503612944	0.77917716177336
9.3978826959248	0.77922557220164
9.3773055364404	0.77927576216215
9.3568182896380	0.77932772965747
9.3364203674868	0.77938147261821
9.3161111870727	0.77943698890298
9.2958901705426	0.77949427629835
9.2757567450495	0.77955333251888
9.2557103426984	0.77961415520700
9.2357504004929	0.77967674193306
9.2158763602828	0.77974109019527
9.1960876687117	0.77980719741963
9.1763837771656	0.77987506095997
9.1567641417227	0.77994467809788
9.1372282231027	0.78001604604265
9.1177754866180	0.78008916193131
9.0984054021244	0.78016402282853
9.0791174439733	0.78024062572662
9.0599110909640	0.78031896754549
9.0407858262967	0.78039904513263
9.0217411375263	0.78048085526305
9.0027765165165	0.78056439463928
8.9838914593947	0.78064965989131
8.9650854665072	0.78073664757656
8.9463580423754	0.78082535417988
8.9277086956522	0.78091577611348
8.9091369390788	0.78100790971689
8.8906422894425	0.78110175125698
8.8722242675348	0.78119729692788
8.8538823981099	0.78129454285097
8.8356162098438	0.78139348507484
8.8174252352941	0.78149411957527
8.7993090108600	0.78159644225518
8.7812670767428	0.78170044894462
8.7632989769073	0.78180613540072
8.7454042590432	0.78191349730770
8.7275824745269	0.78202253027678
8.7098331783847	0.78213322984620
8.6921559292549	0.78224559148120
8.6745502893519	0.78235961057393
8.6570158244297	0.78247528244351
8.6395521037464	0.78259260233591
8.6221587000288	0.78271156542403
8.6048351894374	0.78283216680759
8.5875811515325	0.78295440151314
8.5703961692396	0.78307826449405
8.5532798288160	0.78320375063047
8.5362317198178	0.78333085472933
8.5192514350668	0.78345957152428
8.5023385706183	0.78358989567573
8.4854927257288	0.78372182177080
8.4687135028249	0.78385534432331
8.4520005074711	0.78399045777375
8.4353533483399	0.78412715648931
8.4187716371806	0.78426543476382
8.4022549887892	0.78440528681778
8.3858030209790	0.78454670679834
8.3694153545505	0.78468968877926
8.3530916132627	0.78483422676097
8.3368314238042	0.78498031467051
8.3206344157646	0.78512794636154
8.3045002216066	0.78527711561439
8.2884284766381	0.78542781613597
8.2724188189845	0.78558004155986
8.2564708895621	0.78573378544627
8.2405843320506	0.78588904128206
8.2247587928669	0.78604580248074
8.2089939211391	0.78620406238250
8.1932893686800	0.78636381425421
8.1776447899618	0.78652505128944
8.1620598420909	0.78668776660847
8.1465341847826	0.78685195325834
8.1310674803363	0.78701760421283
8.1156593936113	0.78718471237251
8.1003095920022	0.78735327056478
8.0850177454153	0.78752327154387
8.0697835262450	0.78769470799088
8.0546066093498	0.78786757251384
8.0394866720300	0.78804185764773
8.0244233940043	0.78821755585452
8.0094164573871	0.78839465952321
7.9944655466667	0.78857316096988
7.9795703486825	0.78875305243776
7.9647305526036	0.78893432609724
7.9499458499072	0.78911697404598
7.9352159343568	0.78930098830891
7.9205405019815	0.78948636083833
7.9059192510549	0.78967308351398
7.8913518820742	0.78986114814308
7.8768380977404	0.79005054646041
7.8623776029373	0.79024127012841
7.8479701047120	0.79043331073721
7.8336153122550	0.79062665980478
7.8193129368805	0.79082130877694
7.8050626920073	0.79101724902751
7.7908642931393	0.79121447185837
7.7767174578470	0.79141296849956
7.7626219057483	0.79161273010940
7.7485773584906	0.79181374777457
7.7345835397317	0.79201601251024
7.7206401751223	0.79221951526015
7.7067469922879	0.79242424689677
7.6929037208109	0.79263019822139
7.6791100922131	0.79283735996424
7.6653658399386	0.79304572278466
7.6516706993364	0.79325527727119
7.6380244076433	0.79346601394171
7.6244267039674	0.79367792324361
7.6108773292714	0.79389099555394
7.5973760263558	0.79410522117950
7.5839225398432	0.79432059035706
7.5705166161616	0.79453709325352
7.5571580035291	0.79475471996603
7.5438464519376	0.79497346052217
7.5305817131374	0.79519330488018
7.5173635406219	0.79541424292906
7.5041916896120	0.79563626448883
7.4910659170415	0.79585935931064
7.4779859815415	0.79608351707705
7.4649516434263	0.79630872740217
7.4519626646781	0.79653497983187
7.4390188089330	0.79676226384403
7.4261198414664	0.79699056884872
7.4132655291790	0.79721988418842
7.4004556405826	0.79745019913826
7.3876899457861	0.79768150290628
7.3749682164822	0.79791378463360
7.3622902259332	0.79814703339471
7.3496557489581	0.79838123819773
7.3370645619187	0.79861638798462
7.3245164427071	0.79885247163148
7.3120111707317	0.79908947794881
7.2995485269053	0.79932739568174
7.2871282936315	0.79956621351039
7.2747502547925	0.79980592005008
7.2624141957364	0.80004650385164
7.2501199032648	0.80028795340173
7.2378671656205	0.80053025712313
7.2256557724753	0.80077340337503
7.2134855149182	0.80101738045338
7.2013561854432	0.80126217659118
7.1892675779376	0.80150777995883
7.1772194876706	0.80175417866444
7.1652117112811	0.80200136075419
7.1532440467669	0.80224931421270
7.1413162934731	0.80249802696332
7.1294282520809	0.80274748686856
7.1175797245964	0.80299768173040
7.1057705143399	0.80324859929071
7.0940004259347	0.80350022723159
7.0822692652965	0.80375255317581
7.0705768396226	0.80400556468715
7.0589229573817	0.80425924927083
7.0473074283028	0.80451359437391
7.0357300633654	0.80476858738571
7.0241906747891	0.80502421563824
7.0126890760234	0.80528046640661
7.0012250817375	0.80553732690949
6.9897985078107	0.80579478430952
6.9784091713222	0.80605282571382
6.9670568905415	0.80631143817437
6.9557414849188	0.80657060868854
6.9444627750753	0.80683032419954
6.9332205827937	0.80709057159690
6.9220147310090	0.80735133771694
6.9108450437990	0.80761260934331
6.8997113463751	0.80787437320746
6.8886134650735	0.80813661598913
6.8775512273457	0.80839932431694
6.8665244617499	0.80866248476882
6.8555329979419	0.80892608387262
6.8445766666667	0.80919010810663
6.8336552997493	0.80945454390009
6.8227687300865	0.80971937763380
6.8119167916383	0.80998459564066
6.8010993194192	0.81025018420622
6.7903161494904	0.81051612956930
6.7795671189507	0.81078241792254
6.7688520659291	0.81104903541302
6.7581708295762	0.81131596814285
6.7475232500563	0.81158320216979
6.7369091685393	0.81185072350783
6.7263284271932	0.81211851812787
6.7157808691756	0.81238657195834
6.7052663386267	0.81265487088579
6.6947846806610	0.81292340075562
6.6843357413601	0.81319214737267
6.6739193677649	0.81346109650191
6.6635354078684	0.81373023386913
6.6531837106081	0.81399954516159
6.6428641258586	0.81426901602872
6.6325765044248	0.81453863208284
6.6223206980340	0.81480837889981
6.6120965593295	0.81507824201981
6.6019039418630	0.81534820694799
6.5917427000879	0.81561825915525
6.5816126893524	0.81588838407897
6.5715137658922	0.81615856712373
6.5614457868243	0.81642879366207
6.5514086101399	0.81669904903526
6.5414020946978	0.81696931855405
6.5314261002179	0.81723958749948
6.5214804872743	0.81750984112361
6.5115651172893	0.81778006465036
6.5016798525266	0.81805024327628
6.4918245560849	0.81832036217135
6.4819990918919	0.81859040647984
6.4722033246978	0.81886036132107
6.4624371200690	0.81913021179028
6.4527003443823	0.81939994295946
6.4429928648184	0.81966953987818
6.4333145493562	0.81993898757445
6.4236652667667	0.82020827105560
6.4140448866068	0.82047737530912
6.4044532792138	0.82074628530354
6.3948903156997	0.82101498598932
6.3853558679446	0.82128346229973
6.3758498085921	0.82155169915177
6.3663720110427	0.82181968144703
6.3569223494487	0.82208739407265
6.3475006987084	0.82235482190222
6.3381069344609	0.82262194979669
6.3287409330800	0.82288876260532
6.3194025716695	0.82315524516661
6.3100917280572	0.82342138230929
6.3008082807902	0.82368715885319
6.2915521091291	0.82395255961027
6.2823230930427	0.82421756938558
6.2731211132036	0.82448217297820
6.2639460509820	0.82474635518226
6.2547977884415	0.82501010078790
6.2456762083333	0.82527339458229
6.2365811940919	0.82553622135060
6.2275126298297	0.82579856587703
6.2184704003319	0.82606041294584
6.2094543910522	0.82632174734231
6.2004644881075	0.82658255385384
6.1915005782734	0.82684281727093
6.1825625489792	0.82710252238825
6.1736502883031	0.82736165400565
6.1647636849681	0.82762019692925
6.1559026283368	0.82787813597247
6.1470670084068	0.82813545595711
6.1382567158067	0.82839214171439
6.1294716417910	0.82864817808605
6.1207116782360	0.82890354992543
6.1119767176351	0.82915824209852
6.1032666530945	0.82941223948508
6.0945813783289	0.82966552697973
6.0859207876573	0.82991808949305
6.0772847759984	0.83016991195265
6.0686732388664	0.83042097930434
6.0600860723671	0.83067127651320
6.0515231731934	0.83092078856470
6.0429844386212	0.83116950046584
6.0344697665056	0.83141739724625
6.0259790552764	0.83166446395936
6.0175122039342	0.83191068568350
6.0090691120465	0.83215604752306
6.0006496797438	0.83240053460963
5.9922538077154	0.83264413210312
5.9838813972056	0.83288682519295
5.9755323500100	0.83312859909917
5.9672065684713	0.83336943907366
5.9589039554760	0.83360933040124
5.9506244144502	0.83384825840085
5.9423678493558	0.83408620842675
5.9341341646873	0.83432316586962
5.9259232654675	0.83455911615782
5.9177350572444	0.83479404475847
5.9095694460871	0.83502793717871
5.9014263385827	0.83526077896683
5.8933056418321	0.83549255571344
5.8852072634472	0.83572325305271
5.8771311115468	0.83595285666350
5.8690770947533	0.83618135227056
5.8610451221896	0.83640872564575
5.8530351034752	0.83663496260916
5.8450469487229	0.83686004903039
5.8370805685358	0.83708397082966
5.8291358740035	0.83730671397905
5.8212127766990	0.83752826450366
5.8133111886756	0.83774860848284
5.8054310224632	0.83796773205136
5.7975721910656	0.83818562140060
5.7897346079567	0.83840226277977
5.7819181870781	0.83861764249705
5.7741228428351	0.83883174692086
5.7663484900942	0.83904456248098
5.7585950441798	0.83925607566980
5.7508624208709	0.83946627304345
5.7431505363985	0.83967514122306
5.7354593074421	0.83988266689589
5.7277886511272	0.84008883681655
5.7201384850219	0.84029363780818
5.7125087271341	0.84049705676365
5.7048992959087	0.84069908064668
5.6973101102242	0.84089969649311
5.6897410893908	0.84109889141202
5.6821921531463	0.84129665258691
5.6746632216544	0.84149296727691
5.6671542155009	0.84168782281789
5.6596650556919	0.84188120662369
5.6521956636501	0.84207310618725
5.6447459612126	0.84226350908178
5.6373158706281	0.84245240296192
5.6299053145540	0.84263977556487
5.6225142160540	0.84282561471159
5.6151424985952	0.84300990830790
5.6077900860456	0.84319264434564
5.6004569026714	0.84337381090380
5.5931428731343	0.84355339614969
5.5858479224893	0.84373138833999
5.5785719761816	0.84390777582196
5.5713149600446	0.84408254703449
5.5640768002970	0.84425569050927
5.5568574235403	0.84442719487184
5.5496567567568	0.84459704884273
5.5424747273063	0.84476524123856
5.5353112629247	0.84493176097307
5.5281662917204	0.84509659705830
5.5210397421731	0.84525973860556
5.5139315431304	0.84542117482660
5.5068416238060	0.84558089503458
5.4997699137773	0.84573888864522
5.4927163429828	0.84589514517774
5.4856808417200	0.84604965425601
5.4786633406433	0.84620240560951
5.4716637707611	0.84635338907439
5.4646820634342	0.84650259459446
5.4577181503732	0.84665001222223
5.4507719636364	0.84679563211989
5.4438434356274	0.84693944456032
5.4369324990932	0.84708143992806
5.4300390871219	0.84722160872028
5.4231631331404	0.84735994154776
5.4163045709124	0.84749642913584
5.4094633345363	0.84763106232539
5.4026393584430	0.84776383207370
5.3958325773938	0.84789472945544
5.3890429264785	0.84802374566358
5.3822703411131	0.84815087201028
5.3755147570378	0.84827609992782
5.3687761103152	0.84839942096945
5.3620543373278	0.84852082681026
5.3553493747767	0.84864030924812
5.3486611596789	0.84875786020444
5.3419896293656	0.84887347172507
5.3353347214807	0.84898713598111
5.3286963739780	0.84909884526976
5.3220745251198	0.84920859201509
5.3154691134752	0.84931636876886
5.3088800779175	0.84942216821131
5.3023073576229	0.84952598315192
5.2957508920685	0.84962780653017
5.2892106210303	0.84972763141630
5.2826864845815	0.84982545101206
5.2761784230905	0.84992125865139
5.2696863772192	0.85001504780116
5.2632102879213	0.85010681206189
5.2567500964405	0.85019654516838
5.2503057443082	0.85028424099044
5.2438771733427	0.85036989353348
5.2374643256464	0.85045349693925
5.2310671436050	0.85053504548637
5.2246855698850	0.85061453359101
5.2183195474326	0.85069195580748
5.2119690194715	0.85076730682882
5.2056339295016	0.85084058148736
5.1993142212973	0.85091177475530
5.1930098389052	0.85098088174526
5.1867207266436	0.85104789771079
5.1804468290997	0.85111281804690
5.1741880911288	0.85117563829058
5.1679444578521	0.85123635412126
5.1617158746556	0.85129496136129
5.1555022871883	0.85135145597641
5.1493036413604	0.85140583407620
5.1431198833419	0.85145809191449
5.1369509595613	0.85150822588976
5.1307968167037	0.85155623254557
5.1246574017094	0.85160210857095
5.1185326617722	0.85164585080071
5.1124225443383	0.85168745621583
5.1063269971044	0.85172692194383
5.1002459680163	0.85176424525900
5.0941794052676	0.85179942358279
5.0881272572980	0.85183245448405
5.0820894727920	0.85186333567932
5.0760660006773	0.85189206503306
5.0700567901235	0.85191864055795
5.0640617905405	0.85194306041503
5.0580809515775	0.85196532291398
5.0521142231210	0.85198542651328
5.0461615552937	0.85200336982038
5.0402228984533	0.85201915159187
5.0342982031906	0.85203277073362
5.0283874203287	0.85204422630091
5.0224905009214	0.85205351749853
5.0166073962517	0.85206064368087
5.0107380578305	0.85206560435202
5.0048824373957	0.85206839916581
4.9990404869101	0.85206902792586
4.9932121585610	0.85206749058559
4.9873974047579	0.85206378724829
4.9815961781323	0.85205791816702
4.9758084315353	0.85204988374468
4.9700341180371	0.85203968453391
4.9642731909256	0.85202732123706
4.9585256037049	0.85201279470612
4.9527913100942	0.85199610594261
4.9470702640264	0.85197725609750
4.9413624196473	0.85195624647110
4.9356677313138	0.85193307851287
4.9299861535932	0.85190775382131
4.9243176412615	0.85188027414378
4.9186621493027	0.85185064137631
4.9130196329072	0.85181885756340
4.9073900474709	0.85178492489780
4.9017733485939	0.85174884572026
4.8961694920790	0.85171062251931
4.8905784339315	0.85167025793096
4.8850001303569	0.85162775473842
4.8794345377604	0.85158311587182
4.8738816127459	0.85153634440790
4.8683413121143	0.85148744356962
4.8628135928629	0.85143641672589
4.8572984121841	0.85138326739115
4.8517957274640	0.85132799922500
4.8463054962819	0.85127061603184
4.8408276764088	0.85121112176042
4.8353622258065	0.85114952050341
