#Parameters = {thARC=0.6; nARC=2.5; thsub=1; p=1; nSub=2.25}
#"Wavelength / um"	"T (310) [Real Part]"
#---------------------------------------
14.989622900000	0.82511753249017
14.937342202292	0.82498695825452
14.885424925521	0.82485543337304
14.833867293419	0.82472297270157
14.782665581854	0.82458959101155
14.731816117936	0.82445530298973
14.681315279138	0.82432012323788
14.631159492435	0.82418406627244
14.581345233463	0.82404714652425
14.531869025691	0.82390937833828
14.482727439614	0.82377077597336
14.433917091960	0.82363135360194
14.385434644914	0.82349112530983
14.337276805356	0.82335010509600
14.289440324118	0.82320830687238
14.241921995249	0.82306574446361
14.194718655303	0.82292243160692
14.147827182633	0.82277838195190
14.101244496707	0.82263360906038
14.054967557431	0.82248812640626
14.008993364486	0.82234194737539
13.963318956684	0.82219508526543
13.917941411328	0.82204755328572
13.872857843591	0.82189936455724
13.828065405904	0.82175053211245
13.783561287356	0.82160106889525
13.739342713107	0.82145098776092
13.695406943810	0.82130030147604
13.651751275046	0.82114902271845
13.608373036768	0.82099716407724
13.565269592760	0.82084473805269
13.522438340099	0.82069175705627
13.479876708633	0.82053823341068
13.437582160466	0.82038417934978
13.395552189455	0.82022960701868
13.353784320713	0.82007452847373
13.312276110124	0.81991895568256
13.271025143869	0.81976290052415
13.230029037952	0.81960637478886
13.189285437747	0.81944939017854
13.148792017544	0.81929195830654
13.108546480105	0.81913409069787
13.068546556234	0.81897579878925
13.028790004346	0.81881709392924
12.989274610052	0.81865798737829
12.949998185745	0.81849849030899
12.910958570198	0.81833861380608
12.872153628167	0.81817836886662
12.833581250000	0.81801776640020
12.795239351259	0.81785681722900
12.757125872340	0.81769553208804
12.719238778108	0.81753392162530
12.681576057530	0.81737199640193
12.644135723323	0.81720976689240
12.606915811606	0.81704724348474
12.569914381551	0.81688443648074
12.533129515050	0.81672135609612
12.496559316382	0.81655801246078
12.460201911887	0.81639441561904
12.424055449648	0.81623057552982
12.388118099174	0.81606650206695
12.352388051092	0.81590220501935
12.316863516845	0.81573769409133
12.281542728390	0.81557297890280
12.246423937908	0.81540806898962
12.211505417515	0.81524297380377
12.176785458976	0.81507770271371
12.142262373431	0.81491226500460
12.107934491115	0.81474666987867
12.073800161095	0.81458092645542
12.039857751004	0.81441504377201
12.006105646776	0.81424903078351
11.972542252396	0.81408289636323
11.939165989646	0.81391664930305
11.905975297855	0.81375029831373
11.872968633663	0.81358385202526
11.840144470774	0.81341731898715
11.807501299724	0.81325070766882
11.775037627651	0.81308402645991
11.742751978065	0.81291728367065
11.710642890625	0.81275048753219
11.678708920919	0.81258364619698
11.646948640249	0.81241676773912
11.615360635413	0.81224986015473
11.583943508501	0.81208293136232
11.552695876686	0.81191598920318
11.521616372022	0.81174904144171
11.490703641242	0.81158209576586
11.459956345566	0.81141515978749
11.429373160503	0.81124824104276
11.398952775665	0.81108134699252
11.368693894577	0.81091448502274
11.338595234493	0.81074766244484
11.308655526217	0.81058088649617
11.278873513920	0.81041416434039
11.249247954972	0.81024750306784
11.219777619760	0.81008090969601
11.190461291527	0.80991439116994
11.161297766195	0.80974795436262
11.132285852209	0.80958160607543
11.103424370370	0.80941535303855
11.074712153676	0.80924920191140
11.046148047163	0.80908315928306
11.017730907755	0.80891723167271
10.989459604106	0.80875142553006
10.961333016453	0.80858574723577
10.933350036470	0.80842020310191
10.905509567115	0.80825479937241
10.877810522496	0.80808954222345
10.850251827723	0.80792443776397
10.822832418773	0.80775949203607
10.795551242348	0.80759471101545
10.768407255747	0.80743010061191
10.741399426729	0.80726566666976
10.714526733381	0.80710141496828
10.687788163993	0.80693735122217
10.661182716927	0.80677348108201
10.634709400497	0.80660981013470
10.608367232838	0.80644634390397
10.582155241793	0.80628308785077
10.556072464789	0.80612004737374
10.530117948718	0.80595722780973
10.504290749825	0.80579463443418
10.478589933590	0.80563227246164
10.453014574616	0.80547014704620
10.427563756522	0.80530826328197
10.402236571825	0.80514662620352
10.377032121841	0.80498524078638
10.351949516575	0.80482411194747
10.326987874612	0.80466324454558
10.302146323024	0.80450264338184
10.277423997257	0.80434231320016
10.252820041040	0.80418225868773
10.228333606278	0.80402248447545
10.203963852961	0.80386299513844
10.179709949066	0.80370379519645
10.155571070461	0.80354488911436
10.131546400811	0.80338628130265
10.107635131490	0.80322797611783
10.083836461487	0.80306997786294
10.060149597315	0.80291229078801
10.036573752929	0.80275491909050
10.013108149633	0.80259786691578
9.9897520159947	0.80244113835760
9.9665045877660	0.80228473745853
9.9433651077944	0.80212866821044
9.9203328259431	0.80197293455496
9.8974069990096	0.80181754038393
9.8745868906456	0.80166248953987
9.8518717712783	0.80150778581645
9.8292609180328	0.80135343295889
9.8067536146549	0.80119943466451
9.7843491514360	0.80104579458310
9.7620468251384	0.80089251631743
9.7398459389214	0.80073960342367
9.7177458022690	0.80058705941189
9.6957457309185	0.80043488774643
9.6738450467893	0.80028309184646
9.6520430779137	0.80013167508631
9.6303391583681	0.79998064079604
9.6087326282051	0.79982999226178
9.5872228333866	0.79967973272624
9.5658091257179	0.79952986538914
9.5444908627826	0.79938039340764
9.5232674078780	0.79923131989680
9.5021381299525	0.79908264792999
9.4811024035421	0.79893438053939
9.4601596087094	0.79878652071634
9.4393091309824	0.79863907141186
9.4185503612944	0.79849203553701
9.3978826959248	0.79834541596338
9.3773055364404	0.79819921552349
9.3568182896380	0.79805343701123
9.3364203674868	0.79790808318228
9.3161111870727	0.79776315675452
9.2958901705426	0.79761866040851
9.2757567450495	0.79747459678783
9.2557103426984	0.79733096849957
9.2357504004929	0.79718777811469
9.2158763602828	0.79704502816850
9.1960876687117	0.79690272116100
9.1763837771656	0.79676085955736
9.1567641417227	0.79661944578827
9.1372282231027	0.79647848225039
9.1177754866180	0.79633797130675
9.0984054021244	0.79619791528712
9.0791174439733	0.79605831648845
9.0599110909640	0.79591917717524
9.0407858262967	0.79578049957997
9.0217411375263	0.79564228590345
9.0027765165165	0.79550453831525
8.9838914593947	0.79536725895407
8.9650854665072	0.79523044992814
8.9463580423754	0.79509411331559
8.9277086956522	0.79495825116485
8.9091369390788	0.79482286549500
8.8906422894425	0.79468795829620
8.8722242675348	0.79455353153001
8.8538823981099	0.79441958712980
8.8356162098438	0.79428612700111
8.8174252352941	0.79415315302201
8.7993090108600	0.79402066704349
8.7812670767428	0.79388867088979
8.7632989769073	0.79375716635878
8.7454042590432	0.79362615522233
8.7275824745269	0.79349563922663
8.7098331783847	0.79336562009259
8.6921559292549	0.79323609951616
8.6745502893519	0.79310707916868
8.6570158244297	0.79297856069722
8.6395521037464	0.79285054572495
8.6221587000288	0.79272303585147
8.6048351894374	0.79259603265313
8.5875811515325	0.79246953768337
8.5703961692396	0.79234355247307
8.5532798288160	0.79221807853088
8.5362317198178	0.79209311734351
8.5192514350668	0.79196867037611
8.5023385706183	0.79184473907254
8.4854927257288	0.79172132485573
8.4687135028249	0.79159842912797
8.4520005074711	0.79147605327122
8.4353533483399	0.79135419864747
8.4187716371806	0.79123286659896
8.4022549887892	0.79111205844859
8.3858030209790	0.79099177550013
8.3694153545505	0.79087201903859
8.3530916132627	0.79075279033046
8.3368314238042	0.79063409062405
8.3206344157646	0.79051592114977
8.3045002216066	0.79039828312038
8.2884284766381	0.79028117773134
8.2724188189845	0.79016460616105
8.2564708895621	0.79004856957115
8.2405843320506	0.78993306910677
8.2247587928669	0.78981810589686
8.2089939211391	0.78970368105440
8.1932893686800	0.78958979567671
8.1776447899618	0.78947645084569
8.1620598420909	0.78936364762811
8.1465341847826	0.78925138707587
8.1310674803363	0.78913967022621
8.1156593936113	0.78902849810205
8.1003095920022	0.78891787171216
8.0850177454153	0.78880779205145
8.0697835262450	0.78869826010123
8.0546066093498	0.78858927682941
8.0394866720300	0.78848084319080
8.0244233940043	0.78837296012728
8.0094164573871	0.78826562856810
7.9944655466667	0.78815884943007
7.9795703486825	0.78805262361782
7.9647305526036	0.78794695202399
7.9499458499072	0.78784183552949
7.9352159343568	0.78773727500372
7.9205405019815	0.78763327130477
7.9059192510549	0.78752982527962
7.8913518820742	0.78742693776442
7.8768380977404	0.78732460958463
7.8623776029373	0.78722284155526
7.8479701047120	0.78712163448108
7.8336153122550	0.78702098915681
7.8193129368805	0.78692090636732
7.8050626920073	0.78682138688785
7.7908642931393	0.78672243148415
7.7767174578470	0.78662404091273
7.7626219057483	0.78652621592103
7.7485773584906	0.78642895724758
7.7345835397317	0.78633226562221
7.7206401751223	0.78623614176624
7.7067469922879	0.78614058639263
7.6929037208109	0.78604560020617
7.6791100922131	0.78595118390363
7.6653658399386	0.78585733817400
7.6516706993364	0.78576406369854
7.6380244076433	0.78567136115107
7.6244267039674	0.78557923119804
7.6108773292714	0.78548767449872
7.5973760263558	0.78539669170538
7.5839225398432	0.78530628346340
7.5705166161616	0.78521645041146
7.5571580035291	0.78512719318165
7.5438464519376	0.78503851239967
7.5305817131374	0.78495040868489
7.5173635406219	0.78486288265061
7.5041916896120	0.78477593490406
7.4910659170415	0.78468956604665
7.4779859815415	0.78460377667404
7.4649516434263	0.78451856737629
7.4519626646781	0.78443393873800
7.4390188089330	0.78434989133841
7.4261198414664	0.78426642575152
7.4132655291790	0.78418354254626
7.4004556405826	0.78410124228653
7.3876899457861	0.78401952553140
7.3749682164822	0.78393839283516
7.3622902259332	0.78385784474745
7.3496557489581	0.78377788181338
7.3370645619187	0.78369850457360
7.3245164427071	0.78361971356447
7.3120111707317	0.78354150931809
7.2995485269053	0.78346389236243
7.2871282936315	0.78338686322143
7.2747502547925	0.78331042241509
7.2624141957364	0.78323457045955
7.2501199032648	0.78315930786718
7.2378671656205	0.78308463514671
7.2256557724753	0.78301055280322
7.2134855149182	0.78293706133834
7.2013561854432	0.78286416125023
7.1892675779376	0.78279185303372
7.1772194876706	0.78272013718034
7.1652117112811	0.78264901417843
7.1532440467669	0.78257848451320
7.1413162934731	0.78250854866678
7.1294282520809	0.78243920711832
7.1175797245964	0.78237046034401
7.1057705143399	0.78230230881719
7.0940004259347	0.78223475300836
7.0822692652965	0.78216779338530
7.0705768396226	0.78210143041306
7.0589229573817	0.78203566455405
7.0473074283028	0.78197049626808
7.0357300633654	0.78190592601243
7.0241906747891	0.78184195424186
7.0126890760234	0.78177858140869
7.0012250817375	0.78171580796281
6.9897985078107	0.78165363435176
6.9784091713222	0.78159206102073
6.9670568905415	0.78153108841263
6.9557414849188	0.78147071696811
6.9444627750753	0.78141094712556
6.9332205827937	0.78135177932123
6.9220147310090	0.78129321398916
6.9108450437990	0.78123525156126
6.8997113463751	0.78117789246733
6.8886134650735	0.78112113713509
6.8775512273457	0.78106498599016
6.8665244617499	0.78100943945616
6.8555329979419	0.78095449795463
6.8445766666667	0.78090016190511
6.8336552997493	0.78084643172516
6.8227687300865	0.78079330783033
6.8119167916383	0.78074079063420
6.8010993194192	0.78068888054838
6.7903161494904	0.78063757798251
6.7795671189507	0.78058688334431
6.7688520659291	0.78053679703950
6.7581708295762	0.78048731947189
6.7475232500563	0.78043845104332
6.7369091685393	0.78039019215369
6.7263284271932	0.78034254320095
6.7157808691756	0.78029550458109
6.7052663386267	0.78024907668813
6.6947846806610	0.78020325991415
6.6843357413601	0.78015805464921
6.6739193677649	0.78011346128142
6.6635354078684	0.78006948019686
6.6531837106081	0.78002611177962
6.6428641258586	0.77998335641175
6.6325765044248	0.77994121447326
6.6223206980340	0.77989968634208
6.6120965593295	0.77985877239408
6.6019039418630	0.77981847300301
6.5917427000879	0.77977878854051
6.5816126893524	0.77973971937606
6.5715137658922	0.77970126587698
6.5614457868243	0.77966342840837
6.5514086101399	0.77962620733311
6.5414020946978	0.77958960301184
6.5314261002179	0.77955361580290
6.5214804872743	0.77951824606232
6.5115651172893	0.77948349414377
6.5016798525266	0.77944936039854
6.4918245560849	0.77941584517552
6.4819990918919	0.77938294882111
6.4722033246978	0.77935067167925
6.4624371200690	0.77931901409133
6.4527003443823	0.77928797639619
6.4429928648184	0.77925755893003
6.4333145493562	0.77922776202643
6.4236652667667	0.77919858601624
6.4140448866068	0.77917003122759
6.4044532792138	0.77914209798584
6.3948903156997	0.77911478661347
6.3853558679446	0.77908809743014
6.3758498085921	0.77906203075254
6.3663720110427	0.77903658689441
6.3569223494487	0.77901176616644
6.3475006987084	0.77898756887626
6.3381069344609	0.77896399532837
6.3287409330800	0.77894104582409
6.3194025716695	0.77891872066149
6.3100917280572	0.77889702013537
6.3008082807902	0.77887594453716
6.2915521091291	0.77885549415491
6.2823230930427	0.77883566927320
6.2731211132036	0.77881647017309
6.2639460509820	0.77879789713207
6.2547977884415	0.77877995042400
6.2456762083333	0.77876263031902
6.2365811940919	0.77874593708354
6.2275126298297	0.77872987098014
6.2184704003319	0.77871443226752
6.2094543910522	0.77869962120043
6.2004644881075	0.77868543802961
6.1915005782734	0.77867188300175
6.1825625489792	0.77865895635937
6.1736502883031	0.77864665834081
6.1647636849681	0.77863498918014
6.1559026283368	0.77862394910707
6.1470670084068	0.77861353834694
6.1382567158067	0.77860375712059
6.1294716417910	0.77859460564433
6.1207116782360	0.77858608412988
6.1119767176351	0.77857819278424
6.1032666530945	0.77857093180969
6.0945813783289	0.77856430140370
6.0859207876573	0.77855830175883
6.0772847759984	0.77855293306267
6.0686732388664	0.77854819549781
6.0600860723671	0.77854408924171
6.0515231731934	0.77854061446666
6.0429844386212	0.77853777133970
6.0344697665056	0.77853556002255
6.0259790552764	0.77853398067152
6.0175122039342	0.77853303343748
6.0090691120465	0.77853271846572
6.0006496797438	0.77853303589593
5.9922538077154	0.77853398586210
5.9838813972056	0.77853556849246
5.9755323500100	0.77853778390939
5.9672065684713	0.77854063222935
5.9589039554760	0.77854411356282
5.9506244144502	0.77854822801419
5.9423678493558	0.77855297568172
5.9341341646873	0.77855835665743
5.9259232654675	0.77856437102707
5.9177350572444	0.77857101886999
5.9095694460871	0.77857830025910
5.9014263385827	0.77858621526080
5.8933056418321	0.77859476393486
5.8852072634472	0.77860394633438
5.8771311115468	0.77861376250570
5.8690770947533	0.77862421248835
5.8610451221896	0.77863529631492
5.8530351034752	0.77864701401104
5.8450469487229	0.77865936559525
5.8370805685358	0.77867235107898
5.8291358740035	0.77868597046641
5.8212127766990	0.77870022375447
5.8133111886756	0.77871511093269
5.8054310224632	0.77873063198317
5.7975721910656	0.77874678688047
5.7897346079567	0.77876357559158
5.7819181870781	0.77878099807581
5.7741228428351	0.77879905428470
5.7663484900942	0.77881774416199
5.7585950441798	0.77883706764351
5.7508624208709	0.77885702465711
5.7431505363985	0.77887761512261
5.7354593074421	0.77889883895169
5.7277886511272	0.77892069604782
5.7201384850219	0.77894318630623
5.7125087271341	0.77896630961376
5.7048992959087	0.77899006584887
5.6973101102242	0.77901445488149
5.6897410893908	0.77903947657300
5.6821921531463	0.77906513077613
5.6746632216544	0.77909141733492
5.6671542155009	0.77911833608460
5.6596650556919	0.77914588685153
5.6521956636501	0.77917406945318
5.6447459612126	0.77920288369798
5.6373158706281	0.77923232938532
5.6299053145540	0.77926240630543
5.6225142160540	0.77929311423932
5.6151424985952	0.77932445295876
5.6077900860456	0.77935642222611
5.6004569026714	0.77938902179436
5.5931428731343	0.77942225140699
5.5858479224893	0.77945611079793
5.5785719761816	0.77949059969148
5.5713149600446	0.77952571780227
5.5640768002970	0.77956146483516
5.5568574235403	0.77959784048518
5.5496567567568	0.77963484443749
5.5424747273063	0.77967247636731
5.5353112629247	0.77971073593981
5.5281662917204	0.77974962281010
5.5210397421731	0.77978913662317
5.5139315431304	0.77982927701376
5.5068416238060	0.77987004360639
5.4997699137773	0.77991143601521
5.4927163429828	0.77995345384403
5.4856808417200	0.77999609668616
5.4786633406433	0.78003936412445
5.4716637707611	0.78008325573115
5.4646820634342	0.78012777106791
5.4577181503732	0.78017290968569
5.4507719636364	0.78021867112470
5.4438434356274	0.78026505491437
5.4369324990932	0.78031206057328
5.4300390871219	0.78035968760910
5.4231631331404	0.78040793551855
5.4163045709124	0.78045680378733
5.4094633345363	0.78050629189009
5.4026393584430	0.78055639929035
5.3958325773938	0.78060712544046
5.3890429264785	0.78065846978156
5.3822703411131	0.78071043174355
5.3755147570378	0.78076301074496
5.3687761103152	0.78081620619301
5.3620543373278	0.78087001748348
5.3553493747767	0.78092444400069
5.3486611596789	0.78097948511749
5.3419896293656	0.78103514019514
5.3353347214807	0.78109140858334
5.3286963739780	0.78114828962014
5.3220745251198	0.78120578263193
5.3154691134752	0.78126388693336
5.3088800779175	0.78132260182735
5.3023073576229	0.78138192660499
5.2957508920685	0.78144186054554
5.2892106210303	0.78150240291641
5.2826864845815	0.78156355297308
5.2761784230905	0.78162530995906
5.2696863772192	0.78168767310591
5.2632102879213	0.78175064163316
5.2567500964405	0.78181421474828
5.2503057443082	0.78187839164665
5.2438771733427	0.78194317151155
5.2374643256464	0.78200855351410
5.2310671436050	0.78207453681324
5.2246855698850	0.78214112055572
5.2183195474326	0.78220830387603
5.2119690194715	0.78227608589642
5.2056339295016	0.78234446572682
5.1993142212973	0.78241344246489
5.1930098389052	0.78248301519590
5.1867207266436	0.78255318299280
5.1804468290997	0.78262394491614
5.1741880911288	0.78269530001405
5.1679444578521	0.78276724732225
5.1617158746556	0.78283978586400
5.1555022871883	0.78291291465012
5.1493036413604	0.78298663267891
5.1431198833419	0.78306093893619
5.1369509595613	0.78313583239527
5.1307968167037	0.78321131201692
5.1246574017094	0.78328737674937
5.1185326617722	0.78336402552828
5.1124225443383	0.78344125727676
5.1063269971044	0.78351907090533
5.1002459680163	0.78359746531192
5.0941794052676	0.78367643938187
5.0881272572980	0.78375599198790
5.0820894727920	0.78383612199012
5.0760660006773	0.78391682823603
5.0700567901235	0.78399810956051
5.0640617905405	0.78407996478579
5.0580809515775	0.78416239272149
5.0521142231210	0.78424539216459
5.0461615552937	0.78432896189944
5.0402228984533	0.78441310069776
5.0342982031906	0.78449780731863
5.0283874203287	0.78458308050851
5.0224905009214	0.78466891900123
5.0166073962517	0.78475532151799
5.0107380578305	0.78484228676738
5.0048824373957	0.78492981344540
4.9990404869101	0.78501790023542
4.9932121585610	0.78510654580822
4.9873974047579	0.78519574882201
4.9815961781323	0.78528550792241
4.9758084315353	0.78537582174249
4.9700341180371	0.78546668890275
4.9642731909256	0.78555810801118
4.9585256037049	0.78565007766322
4.9527913100942	0.78574259644182
4.9470702640264	0.78583566291744
4.9413624196473	0.78592927564805
4.9356677313138	0.78602343317918
4.9299861535932	0.78611813404393
4.9243176412615	0.78621337676295
4.9186621493027	0.78630915984454
4.9130196329072	0.78640548178461
4.9073900474709	0.78650234106671
4.9017733485939	0.78659973616208
4.8961694920790	0.78669766552966
4.8905784339315	0.78679612761612
4.8850001303569	0.78689512085588
4.8794345377604	0.78699464367115
4.8738816127459	0.78709469447195
4.8683413121143	0.78719527165615
4.8628135928629	0.78729637360947
4.8572984121841	0.78739799870556
4.8517957274640	0.78750014530602
4.8463054962819	0.78760281176039
4.8408276764088	0.78770599640625
4.8353622258065	0.78780969756921
