#Parameters = {thARC=1; nARC=2.75; thsub=1; p=1; nSub=2.25}
#"Wavelength / um"	"T (318) [Real Part]"
#---------------------------------------
14.989622900000	0.72731529835210
14.937342202292	0.72693397021247
14.885424925521	0.72655586275861
14.833867293419	0.72618099124234
14.782665581854	0.72580937071843
14.731816117936	0.72544101604554
14.681315279138	0.72507594188718
14.631159492435	0.72471416271271
14.581345233463	0.72435569279832
14.531869025691	0.72400054622803
14.482727439614	0.72364873689465
14.433917091960	0.72330027850084
14.385434644914	0.72295518456009
14.337276805356	0.72261346839770
14.289440324118	0.72227514315186
14.241921995249	0.72194022177463
14.194718655303	0.72160871703295
14.147827182633	0.72128064150971
14.101244496707	0.72095600760474
14.054967557431	0.72063482753584
14.008993364486	0.72031711333982
13.963318956684	0.72000287687354
13.917941411328	0.71969212981491
13.872857843591	0.71938488366396
13.828065405904	0.71908114974382
13.783561287356	0.71878093920179
13.739342713107	0.71848426301035
13.695406943810	0.71819113196817
13.651751275046	0.71790155670117
13.608373036768	0.71761554766350
13.565269592760	0.71733311513858
13.522438340099	0.71705426924011
13.479876708633	0.71677901991307
13.437582160466	0.71650737693475
13.395552189455	0.71623934991569
13.353784320713	0.71597494830077
13.312276110124	0.71571418137011
13.271025143869	0.71545705824011
13.230029037952	0.71520358786442
13.189285437747	0.71495377903489
13.148792017544	0.71470764038257
13.108546480105	0.71446518037864
13.068546556234	0.71422640733537
13.028790004346	0.71399132940709
12.989274610052	0.71375995459109
12.949998185745	0.71353229072857
12.910958570198	0.71330834550557
12.872153628167	0.71308812645385
12.833581250000	0.71287164095182
12.795239351259	0.71265889622543
12.757125872340	0.71244989934906
12.719238778108	0.71224465724636
12.681576057530	0.71204317669117
12.644135723323	0.71184546430834
12.606915811606	0.71165152657457
12.569914381551	0.71146136981927
12.533129515050	0.71127500022535
12.496559316382	0.71109242383008
12.460201911887	0.71091364652582
12.424055449648	0.71073867406089
12.388118099174	0.71056751204028
12.352388051092	0.71040016592646
12.316863516845	0.71023664104011
12.281542728390	0.71007694256084
12.246423937908	0.70992107552799
12.211505417515	0.70976904484127
12.176785458976	0.70962085526150
12.142262373431	0.70947651141129
12.107934491115	0.70933601777572
12.073800161095	0.70919937870299
12.039857751004	0.70906659840511
12.006105646776	0.70893768095846
11.972542252396	0.70881263030450
11.939165989646	0.70869145025031
11.905975297855	0.70857414446921
11.872968633663	0.70846071650134
11.840144470774	0.70835116975423
11.807501299724	0.70824550750332
11.775037627651	0.70814373289253
11.742751978065	0.70804584893477
11.710642890625	0.70795185851245
11.678708920919	0.70786176437793
11.646948640249	0.70777556915405
11.615360635413	0.70769327533459
11.583943508501	0.70761488528464
11.552695876686	0.70754040124113
11.521616372022	0.70746982531317
11.490703641242	0.70740315948248
11.459956345566	0.70734040560377
11.429373160503	0.70728156540510
11.398952775665	0.70722664048822
11.368693894577	0.70717563232893
11.338595234493	0.70712854227738
11.308655526217	0.70708537155840
11.278873513920	0.70704612127173
11.249247954972	0.70701079239234
11.219777619760	0.70697938577067
11.190461291527	0.70695190213287
11.161297766195	0.70692834208101
11.132285852209	0.70690870609329
11.103424370370	0.70689299452424
11.074712153676	0.70688120760487
11.046148047163	0.70687334544284
11.017730907755	0.70686940802261
10.989459604106	0.70686939520553
10.961333016453	0.70687330672997
10.933350036470	0.70688114221141
10.905509567115	0.70689290114249
10.877810522496	0.70690858289309
10.850251827723	0.70692818671037
10.822832418773	0.70695171171876
10.795551242348	0.70697915692000
10.768407255747	0.70701052119312
10.741399426729	0.70704580329441
10.714526733381	0.70708500185737
10.687788163993	0.70712811539265
10.661182716927	0.70717514228798
10.634709400497	0.70722608080809
10.608367232838	0.70728092909455
10.582155241793	0.70733968516571
10.556072464789	0.70740234691649
10.530117948718	0.70746891211827
10.504290749825	0.70753937841868
10.478589933590	0.70761374334144
10.453014574616	0.70769200428612
10.427563756522	0.70777415852792
10.402236571825	0.70786020321744
10.377032121841	0.70795013538042
10.351949516575	0.70804395191744
10.326987874612	0.70814164960366
10.302146323024	0.70824322508852
10.277423997257	0.70834867489536
10.252820041040	0.70845799542115
10.228333606278	0.70857118293609
10.203963852961	0.70868823358326
10.179709949066	0.70880914337823
10.155571070461	0.70893390820864
10.131546400811	0.70906252383381
10.107635131490	0.70919498588429
10.083836461487	0.70933128986142
10.060149597315	0.70947143113684
10.036573752929	0.70961540495205
10.013108149633	0.70976320641789
9.9897520159947	0.70991483051404
9.9665045877660	0.71007027208849
9.9433651077944	0.71022952585700
9.9203328259431	0.71039258640254
9.8974069990096	0.71055944817475
9.8745868906456	0.71073010548931
9.8518717712783	0.71090455252739
9.8292609180328	0.71108278333501
9.8067536146549	0.71126479182241
9.7843491514360	0.71145057176342
9.7620468251384	0.71164011679482
9.7398459389214	0.71183342041565
9.7177458022690	0.71203047598653
9.6957457309185	0.71223127672896
9.6738450467893	0.71243581572467
9.6520430779137	0.71264408591479
9.6303391583681	0.71285608009922
9.6087326282051	0.71307179093582
9.5872228333866	0.71329121093968
9.5658091257179	0.71351433248233
9.5444908627826	0.71374114779098
9.5232674078780	0.71397164894767
9.5021381299525	0.71420582788854
9.4811024035421	0.71444367640293
9.4601596087094	0.71468518613261
9.4393091309824	0.71493034857090
9.4185503612944	0.71517915506182
9.3978826959248	0.71543159679923
9.3773055364404	0.71568766482598
9.3568182896380	0.71594735003295
9.3364203674868	0.71621064315823
9.3161111870727	0.71647753478617
9.2958901705426	0.71674801534646
9.2757567450495	0.71702207511324
9.2557103426984	0.71729970420411
9.2357504004929	0.71758089257921
9.2158763602828	0.71786563004029
9.1960876687117	0.71815390622969
9.1763837771656	0.71844571062941
9.1567641417227	0.71874103256011
9.1372282231027	0.71903986118013
9.1177754866180	0.71934218548448
9.0984054021244	0.71964799430386
9.0791174439733	0.71995727630361
9.0599110909640	0.72027001998271
9.0407858262967	0.72058621367278
9.0217411375263	0.72090584553701
9.0027765165165	0.72122890356912
8.9838914593947	0.72155537559236
8.9650854665072	0.72188524925841
8.9463580423754	0.72221851204636
8.9277086956522	0.72255515126161
8.9091369390788	0.72289515403485
8.8906422894425	0.72323850732099
8.8722242675348	0.72358519789802
8.8538823981099	0.72393521236603
8.8356162098438	0.72428853714605
8.8174252352941	0.72464515847901
8.7993090108600	0.72500506242465
8.7812670767428	0.72536823486040
8.7632989769073	0.72573466148033
8.7454042590432	0.72610432779406
8.7275824745269	0.72647721912561
8.7098331783847	0.72685332061237
8.6921559292549	0.72723261720398
8.6745502893519	0.72761509366123
8.6570158244297	0.72800073455497
8.6395521037464	0.72838952426503
8.6221587000288	0.72878144697911
8.6048351894374	0.72917648669168
8.5875811515325	0.72957462720291
8.5703961692396	0.72997585211760
8.5532798288160	0.73038014484405
8.5362317198178	0.73078748859301
8.5192514350668	0.73119786637658
8.5023385706183	0.73161126100717
8.4854927257288	0.73202765509641
8.4687135028249	0.73244703105406
8.4520005074711	0.73286937108700
8.4353533483399	0.73329465719814
8.4187716371806	0.73372287118540
8.4022549887892	0.73415399464062
8.3858030209790	0.73458800894861
8.3694153545505	0.73502489528602
8.3530916132627	0.73546463462041
8.3368314238042	0.73590720770920
8.3206344157646	0.73635259509867
8.3045002216066	0.73680077712297
8.2884284766381	0.73725173390315
8.2724188189845	0.73770544534618
8.2564708895621	0.73816189114399
8.2405843320506	0.73862105077254
8.2247587928669	0.73908290349086
8.2089939211391	0.73954742834012
8.1932893686800	0.74001460414277
8.1776447899618	0.74048440950160
8.1620598420909	0.74095682279884
8.1465341847826	0.74143182219537
8.1310674803363	0.74190938562978
8.1156593936113	0.74238949081760
8.1003095920022	0.74287211525045
8.0850177454153	0.74335723619522
8.0697835262450	0.74384483069334
8.0546066093498	0.74433487555997
8.0394866720300	0.74482734738325
8.0244233940043	0.74532222252360
8.0094164573871	0.74581947711299
7.9944655466667	0.74631908705426
7.9795703486825	0.74682102802046
7.9647305526036	0.74732527545417
7.9499458499072	0.74783180456694
7.9352159343568	0.74834059033861
7.9205405019815	0.74885160751682
7.9059192510549	0.74936483061638
7.8913518820742	0.74988023391879
7.8768380977404	0.75039779147172
7.8623776029373	0.75091747708856
7.8479701047120	0.75143926434790
7.8336153122550	0.75196312659320
7.8193129368805	0.75248903693233
7.8050626920073	0.75301696823724
7.7908642931393	0.75354689314358
7.7767174578470	0.75407878405046
7.7626219057483	0.75461261312010
7.7485773584906	0.75514835227763
7.7345835397317	0.75568597321087
7.7206401751223	0.75622544737015
7.7067469922879	0.75676674596814
7.6929037208109	0.75730983997975
7.6791100922131	0.75785470014206
7.6653658399386	0.75840129695425
7.6516706993364	0.75894960067762
7.6380244076433	0.75949958133559
7.6244267039674	0.76005120871377
7.6108773292714	0.76060445236007
7.5973760263558	0.76115928158482
7.5839225398432	0.76171566546098
7.5705166161616	0.76227357282432
7.5571580035291	0.76283297227369
7.5438464519376	0.76339383217134
7.5305817131374	0.76395612064323
7.5173635406219	0.76451980557941
7.5041916896120	0.76508485463447
7.4910659170415	0.76565123522800
7.4779859815415	0.76621891454507
7.4649516434263	0.76678785953684
7.4519626646781	0.76735803692111
7.4390188089330	0.76792941318298
7.4261198414664	0.76850195457558
7.4132655291790	0.76907562712076
7.4004556405826	0.76965039660990
7.3876899457861	0.77022622860475
7.3749682164822	0.77080308843830
7.3622902259332	0.77138094121574
7.3496557489581	0.77195975181541
7.3370645619187	0.77253948488987
7.3245164427071	0.77312010486696
7.3120111707317	0.77370157595095
7.2995485269053	0.77428386212372
7.2871282936315	0.77486692714602
7.2747502547925	0.77545073455875
7.2624141957364	0.77603524768432
7.2501199032648	0.77662042962805
7.2378671656205	0.77720624327962
7.2256557724753	0.77779265131463
7.2134855149182	0.77837961619609
7.2013561854432	0.77896710017614
7.1892675779376	0.77955506529766
7.1772194876706	0.78014347339605
7.1652117112811	0.78073228610102
7.1532440467669	0.78132146483846
7.1413162934731	0.78191097083232
7.1294282520809	0.78250076510664
7.1175797245964	0.78309080848755
7.1057705143399	0.78368106160536
7.0940004259347	0.78427148489675
7.0822692652965	0.78486203860694
7.0705768396226	0.78545268279202
7.0589229573817	0.78604337732123
7.0473074283028	0.78663408187943
7.0357300633654	0.78722475596950
7.0241906747891	0.78781535891489
7.0126890760234	0.78840584986223
7.0012250817375	0.78899618778393
6.9897985078107	0.78958633148094
6.9784091713222	0.79017623958549
6.9670568905415	0.79076587056399
6.9557414849188	0.79135518271984
6.9444627750753	0.79194413419649
6.9332205827937	0.79253268298041
6.9220147310090	0.79312078690423
6.9108450437990	0.79370840364984
6.8997113463751	0.79429549075171
6.8886134650735	0.79488200560007
6.8775512273457	0.79546790544435
6.8665244617499	0.79605314739655
6.8555329979419	0.79663768843473
6.8445766666667	0.79722148540658
6.8336552997493	0.79780449503301
6.8227687300865	0.79838667391181
6.8119167916383	0.79896797852144
6.8010993194192	0.79954836522478
6.7903161494904	0.80012779027305
6.7795671189507	0.80070620980968
6.7688520659291	0.80128357987437
6.7581708295762	0.80185985640710
6.7475232500563	0.80243499525230
6.7369091685393	0.80300895216298
6.7263284271932	0.80358168280501
6.7157808691756	0.80415314276144
6.7052663386267	0.80472328753686
6.6947846806610	0.80529207256183
6.6843357413601	0.80585945319739
6.6739193677649	0.80642538473958
6.6635354078684	0.80698982242412
6.6531837106081	0.80755272143105
6.6428641258586	0.80811403688944
6.6325765044248	0.80867372388226
6.6223206980340	0.80923173745117
6.6120965593295	0.80978803260145
6.6019039418630	0.81034256430698
6.5917427000879	0.81089528751527
6.5816126893524	0.81144615715252
6.5715137658922	0.81199512812880
6.5614457868243	0.81254215534317
6.5514086101399	0.81308719368901
6.5414020946978	0.81363019805927
6.5314261002179	0.81417112335183
6.5214804872743	0.81470992447491
6.5115651172893	0.81524655635253
6.5016798525266	0.81578097392999
6.4918245560849	0.81631313217945
6.4819990918919	0.81684298610550
6.4722033246978	0.81737049075087
6.4624371200690	0.81789560120202
6.4527003443823	0.81841827259498
6.4429928648184	0.81893846012109
6.4333145493562	0.81945611903279
6.4236652667667	0.81997120464957
6.4140448866068	0.82048367236378
6.4044532792138	0.82099347764667
6.3948903156997	0.82150057605429
6.3853558679446	0.82200492323357
6.3758498085921	0.82250647492836
6.3663720110427	0.82300518698551
6.3569223494487	0.82350101536099
6.3475006987084	0.82399391612608
6.3381069344609	0.82448384547353
6.3287409330800	0.82497075972377
6.3194025716695	0.82545461533116
6.3100917280572	0.82593536889027
6.3008082807902	0.82641297714216
6.2915521091291	0.82688739698070
6.2823230930427	0.82735858545891
6.2731211132036	0.82782649979532
6.2639460509820	0.82829109738034
6.2547977884415	0.82875233578265
6.2456762083333	0.82921017275563
6.2365811940919	0.82966456624376
6.2275126298297	0.83011547438908
6.2184704003319	0.83056285553760
6.2094543910522	0.83100666824578
6.2004644881075	0.83144687128701
6.1915005782734	0.83188342365802
6.1825625489792	0.83231628458540
6.1736502883031	0.83274541353205
6.1647636849681	0.83317077020367
6.1559026283368	0.83359231455519
6.1470670084068	0.83401000679731
6.1382567158067	0.83442380740286
6.1294716417910	0.83483367711336
6.1207116782360	0.83523957694538
6.1119767176351	0.83564146819705
6.1032666530945	0.83603931245440
6.0945813783289	0.83643307159784
6.0859207876573	0.83682270780850
6.0772847759984	0.83720818357465
6.0686732388664	0.83758946169798
6.0600860723671	0.83796650530001
6.0515231731934	0.83833927782835
6.0429844386212	0.83870774306298
6.0344697665056	0.83907186512251
6.0259790552764	0.83943160847040
6.0175122039342	0.83978693792114
6.0090691120465	0.84013781864644
6.0006496797438	0.84048421618128
5.9922538077154	0.84082609643008
5.9838813972056	0.84116342567265
5.9755323500100	0.84149617057026
5.9672065684713	0.84182429817158
5.9589039554760	0.84214777591855
5.9506244144502	0.84246657165230
5.9423678493558	0.84278065361893
5.9341341646873	0.84308999047527
5.9259232654675	0.84339455129461
5.9177350572444	0.84369430557234
5.9095694460871	0.84398922323155
5.9014263385827	0.84427927462855
5.8933056418321	0.84456443055839
5.8852072634472	0.84484466226021
5.8771311115468	0.84511994142265
5.8690770947533	0.84539024018911
5.8610451221896	0.84565553116293
5.8530351034752	0.84591578741259
5.8450469487229	0.84617098247675
5.8370805685358	0.84642109036925
5.8291358740035	0.84666608558404
5.8212127766990	0.84690594310003
5.8133111886756	0.84714063838583
5.8054310224632	0.84737014740447
5.7975721910656	0.84759444661800
5.7897346079567	0.84781351299196
5.7819181870781	0.84802732399990
5.7741228428351	0.84823585762763
5.7663484900942	0.84843909237758
5.7585950441798	0.84863700727287
5.7508624208709	0.84882958186146
5.7431505363985	0.84901679622009
5.7354593074421	0.84919863095819
5.7277886511272	0.84937506722167
5.7201384850219	0.84954608669659
5.7125087271341	0.84971167161278
5.7048992959087	0.84987180474735
5.6973101102242	0.85002646942805
5.6897410893908	0.85017564953654
5.6821921531463	0.85031932951167
5.6746632216544	0.85045749435247
5.6671542155009	0.85059012962114
5.6596650556919	0.85071722144596
5.6521956636501	0.85083875652402
5.6447459612126	0.85095472212387
5.6373158706281	0.85106510608805
5.6299053145540	0.85116989683554
5.6225142160540	0.85126908336406
5.6151424985952	0.85136265525227
5.6077900860456	0.85145060266187
5.6004569026714	0.85153291633956
5.5931428731343	0.85160958761890
5.5858479224893	0.85168060842204
5.5785719761816	0.85174597126137
5.5713149600446	0.85180566924100
5.5640768002970	0.85185969605816
5.5568574235403	0.85190804600446
5.5496567567568	0.85195071396703
5.5424747273063	0.85198769542959
5.5353112629247	0.85201898647331
5.5281662917204	0.85204458377762
5.5210397421731	0.85206448462089
5.5139315431304	0.85207868688096
5.5068416238060	0.85208718903557
5.4997699137773	0.85208999016266
5.4927163429828	0.85208708994055
5.4856808417200	0.85207848864804
5.4786633406433	0.85206418716430
5.4716637707611	0.85204418696870
5.4646820634342	0.85201849014053
5.4577181503732	0.85198709935855
5.4507719636364	0.85195001790046
5.4438434356274	0.85190724964224
5.4369324990932	0.85185879905733
5.4300390871219	0.85180467121577
5.4231631331404	0.85174487178312
5.4163045709124	0.85167940701936
5.4094633345363	0.85160828377760
5.4026393584430	0.85153150950270
5.3958325773938	0.85144909222977
5.3890429264785	0.85136104058254
5.3822703411131	0.85126736377164
5.3755147570378	0.85116807159272
5.3687761103152	0.85106317442451
5.3620543373278	0.85095268322673
5.3553493747767	0.85083660953788
5.3486611596789	0.85071496547293
5.3419896293656	0.85058776372090
5.3353347214807	0.85045501754234
5.3286963739780	0.85031674076668
5.3220745251198	0.85017294778945
5.3154691134752	0.85002365356946
5.3088800779175	0.84986887362578
5.3023073576229	0.84970862403473
5.2957508920685	0.84954292142663
5.2892106210303	0.84937178298258
5.2826864845815	0.84919522643101
5.2761784230905	0.84901327004425
5.2696863772192	0.84882593263490
5.2632102879213	0.84863323355219
5.2567500964405	0.84843519267812
5.2503057443082	0.84823183042368
5.2438771733427	0.84802316772478
5.2374643256464	0.84780922603826
5.2310671436050	0.84759002733769
5.2246855698850	0.84736559410913
5.2183195474326	0.84713594934679
5.2119690194715	0.84690111654862
5.2056339295016	0.84666111971179
5.1993142212973	0.84641598332812
5.1930098389052	0.84616573237937
5.1867207266436	0.84591039233250
5.1804468290997	0.84564998913486
5.1741880911288	0.84538454920926
5.1679444578521	0.84511409944897
5.1617158746556	0.84483866721271
5.1555022871883	0.84455828031946
5.1493036413604	0.84427296704332
5.1431198833419	0.84398275610820
5.1369509595613	0.84368767668249
5.1307968167037	0.84338775837371
5.1246574017094	0.84308303122298
5.1185326617722	0.84277352569954
5.1124225443383	0.84245927269518
5.1063269971044	0.84214030351858
5.1002459680163	0.84181664988961
5.0941794052676	0.84148834393363
5.0881272572980	0.84115541817565
5.0820894727920	0.84081790553451
5.0760660006773	0.84047583931697
5.0700567901235	0.84012925321181
5.0640617905405	0.83977818128380
5.0580809515775	0.83942265796770
5.0521142231210	0.83906271806223
5.0461615552937	0.83869839672392
5.0402228984533	0.83832972946099
5.0342982031906	0.83795675212720
5.0283874203287	0.83757950091566
5.0224905009214	0.83719801235253
5.0166073962517	0.83681232329085
5.0107380578305	0.83642247090421
5.0048824373957	0.83602849268044
4.9990404869101	0.83563042641529
4.9932121585610	0.83522831020609
4.9873974047579	0.83482218244535
4.9815961781323	0.83441208181443
4.9758084315353	0.83399804727706
4.9700341180371	0.83358011807300
4.9642731909256	0.83315833371159
4.9585256037049	0.83273273396531
4.9527913100942	0.83230335886334
4.9470702640264	0.83187024868514
4.9413624196473	0.83143344395397
4.9356677313138	0.83099298543046
4.9299861535932	0.83054891410615
4.9243176412615	0.83010127119705
4.9186621493027	0.82965009813717
4.9130196329072	0.82919543657213
4.9073900474709	0.82873732835269
4.9017733485939	0.82827581552831
4.8961694920790	0.82781094034078
4.8905784339315	0.82734274521779
4.8850001303569	0.82687127276655
4.8794345377604	0.82639656576742
4.8738816127459	0.82591866716754
4.8683413121143	0.82543762007451
4.8628135928629	0.82495346775004
4.8572984121841	0.82446625360371
4.8517957274640	0.82397602118662
4.8463054962819	0.82348281418521
4.8408276764088	0.82298667641500
4.8353622258065	0.82248765181439
