#Parameters = {thARC=0; nARC=2.75; thsub=1; p=1; nSub=2.25}
#"Wavelength / um"	"T (313) [Real Part]"
#---------------------------------------
14.989622900000	0.85207100762217
14.937342202292	0.85214352744563
14.885424925521	0.85221490022897
14.833867293419	0.85228513411754
14.782665581854	0.85235423725199
14.731816117936	0.85242221776786
14.681315279138	0.85248908379510
14.631159492435	0.85255484345772
14.581345233463	0.85261950487336
14.531869025691	0.85268307615288
14.482727439614	0.85274556539996
14.433917091960	0.85280698071072
14.385434644914	0.85286733017327
14.337276805356	0.85292662186738
14.289440324118	0.85298486386404
14.241921995249	0.85304206422509
14.194718655303	0.85309823100283
14.147827182633	0.85315337223964
14.101244496707	0.85320749596758
14.054967557431	0.85326061020805
14.008993364486	0.85331272297137
13.963318956684	0.85336384225644
13.917941411328	0.85341397605037
13.872857843591	0.85346313232808
13.828065405904	0.85351131905197
13.783561287356	0.85355854417154
13.739342713107	0.85360481562306
13.695406943810	0.85365014132917
13.651751275046	0.85369452919857
13.608373036768	0.85373798712565
13.565269592760	0.85378052299014
13.522438340099	0.85382214465677
13.479876708633	0.85386285997496
13.437582160466	0.85390267677842
13.395552189455	0.85394160288489
13.353784320713	0.85397964609573
13.312276110124	0.85401681419567
13.271025143869	0.85405311495243
13.230029037952	0.85408855611641
13.189285437747	0.85412314542039
13.148792017544	0.85415689057919
13.108546480105	0.85418979928938
13.068546556234	0.85422187922893
13.028790004346	0.85425313805696
12.989274610052	0.85428358341339
12.949998185745	0.85431322291866
12.910958570198	0.85434206417342
12.872153628167	0.85437011475827
12.833581250000	0.85439738223340
12.795239351259	0.85442387413838
12.757125872340	0.85444959799181
12.719238778108	0.85447456129108
12.681576057530	0.85449877151207
12.644135723323	0.85452223610889
12.606915811606	0.85454496251359
12.569914381551	0.85456695813588
12.533129515050	0.85458823036290
12.496559316382	0.85460878655893
12.460201911887	0.85462863406514
12.424055449648	0.85464778019932
12.388118099174	0.85466623225562
12.352388051092	0.85468399750434
12.316863516845	0.85470108319163
12.281542728390	0.85471749653928
12.246423937908	0.85473324474445
12.211505417515	0.85474833497946
12.176785458976	0.85476277439153
12.142262373431	0.85477657010255
12.107934491115	0.85478972920889
12.073800161095	0.85480225878109
12.039857751004	0.85481416586372
12.006105646776	0.85482545747511
11.972542252396	0.85483614060715
11.939165989646	0.85484622222507
11.905975297855	0.85485570926723
11.872968633663	0.85486460864491
11.840144470774	0.85487292724212
11.807501299724	0.85488067191535
11.775037627651	0.85488784949344
11.742751978065	0.85489446677731
11.710642890625	0.85490053053983
11.678708920919	0.85490604752558
11.646948640249	0.85491102445071
11.615360635413	0.85491546800271
11.583943508501	0.85491938484024
11.552695876686	0.85492278159297
11.521616372022	0.85492566486141
11.490703641242	0.85492804121668
11.459956345566	0.85492991720041
11.429373160503	0.85493129932453
11.398952775665	0.85493219407112
11.368693894577	0.85493260789225
11.338595234493	0.85493254720981
11.308655526217	0.85493201841537
11.278873513920	0.85493102787002
11.249247954972	0.85492958190422
11.219777619760	0.85492768681765
11.190461291527	0.85492534887907
11.161297766195	0.85492257432619
11.132285852209	0.85491936936550
11.103424370370	0.85491574017217
11.074712153676	0.85491169288989
11.046148047163	0.85490723363077
11.017730907755	0.85490236847517
10.989459604106	0.85489710347162
10.961333016453	0.85489144463668
10.933350036470	0.85488539795480
10.905509567115	0.85487896937824
10.877810522496	0.85487216482693
10.850251827723	0.85486499018837
10.822832418773	0.85485745131754
10.795551242348	0.85484955403675
10.768407255747	0.85484130413559
10.741399426729	0.85483270737077
10.714526733381	0.85482376946608
10.687788163993	0.85481449611228
10.661182716927	0.85480489296697
10.634709400497	0.85479496565455
10.608367232838	0.85478471976611
10.582155241793	0.85477416085935
10.556072464789	0.85476329445849
10.530117948718	0.85475212605421
10.504290749825	0.85474066110354
10.478589933590	0.85472890502985
10.453014574616	0.85471686322268
10.427563756522	0.85470454103777
10.402236571825	0.85469194379693
10.377032121841	0.85467907678801
10.351949516575	0.85466594526481
10.326987874612	0.85465255444705
10.302146323024	0.85463890952028
10.277423997257	0.85462501563587
10.252820041040	0.85461087791092
10.228333606278	0.85459650142822
10.203963852961	0.85458189123621
10.179709949066	0.85456705234893
10.155571070461	0.85455198974599
10.131546400811	0.85453670837251
10.107635131490	0.85452121313909
10.083836461487	0.85450550892179
10.060149597315	0.85448960056206
10.036573752929	0.85447349286675
10.013108149633	0.85445719060806
9.9897520159947	0.85444069852353
9.9665045877660	0.85442402131598
9.9433651077944	0.85440716365353
9.9203328259431	0.85439013016955
9.8974069990096	0.85437292546266
9.8745868906456	0.85435555409673
9.8518717712783	0.85433802060080
9.8292609180328	0.85432032946917
9.8067536146549	0.85430248516129
9.7843491514360	0.85428449210183
9.7620468251384	0.85426635468063
9.7398459389214	0.85424807725273
9.7177458022690	0.85422966413833
9.6957457309185	0.85421111962283
9.6738450467893	0.85419244795681
9.6520430779137	0.85417365335605
9.6303391583681	0.85415474000154
9.6087326282051	0.85413571203945
9.5872228333866	0.85411657358120
9.5658091257179	0.85409732870344
9.5444908627826	0.85407798144807
9.5232674078780	0.85405853582225
9.5021381299525	0.85403899579846
9.4811024035421	0.85401936531445
9.4601596087094	0.85399964827333
9.4393091309824	0.85397984854357
9.4185503612944	0.85395996995900
9.3978826959248	0.85394001631888
9.3773055364404	0.85391999138794
9.3568182896380	0.85389989889634
9.3364203674868	0.85387974253979
9.3161111870727	0.85385952597954
9.2958901705426	0.85383925284240
9.2757567450495	0.85381892672084
9.2557103426984	0.85379855117299
9.2357504004929	0.85377812972266
9.2158763602828	0.85375766585946
9.1960876687117	0.85373716303877
9.1763837771656	0.85371662468183
9.1567641417227	0.85369605417578
9.1372282231027	0.85367545487371
9.1177754866180	0.85365483009471
9.0984054021244	0.85363418312394
9.0791174439733	0.85361351721265
9.0599110909640	0.85359283557830
9.0407858262967	0.85357214140456
9.0217411375263	0.85355143784139
9.0027765165165	0.85353072800512
8.9838914593947	0.85351001497850
8.9650854665072	0.85348930181075
8.9463580423754	0.85346859151767
8.9277086956522	0.85344788708166
8.9091369390788	0.85342719145183
8.8906422894425	0.85340650754404
8.8722242675348	0.85338583824101
8.8538823981099	0.85336518639234
8.8356162098438	0.85334455481464
8.8174252352941	0.85332394629160
8.7993090108600	0.85330336357402
8.7812670767428	0.85328280937995
8.7632989769073	0.85326228639474
8.7454042590432	0.85324179727114
8.7275824745269	0.85322134462936
8.7098331783847	0.85320093105716
8.6921559292549	0.85318055910999
8.6745502893519	0.85316023131099
8.6570158244297	0.85313995015114
8.6395521037464	0.85311971808935
8.6221587000288	0.85309953755253
8.6048351894374	0.85307941093567
8.5875811515325	0.85305934060199
8.5703961692396	0.85303932888299
8.5532798288160	0.85301937807854
8.5362317198178	0.85299949045701
8.5192514350668	0.85297966825538
8.5023385706183	0.85295991367928
8.4854927257288	0.85294022890314
8.4687135028249	0.85292061607031
8.4520005074711	0.85290107729309
8.4353533483399	0.85288161465292
8.4187716371806	0.85286223020043
8.4022549887892	0.85284292595556
8.3858030209790	0.85282370390768
8.3694153545505	0.85280456601570
8.3530916132627	0.85278551420817
8.3368314238042	0.85276655038338
8.3206344157646	0.85274767640952
8.3045002216066	0.85272889412472
8.2884284766381	0.85271020533725
8.2724188189845	0.85269161182555
8.2564708895621	0.85267311533843
8.2405843320506	0.85265471759511
8.2247587928669	0.85263642028541
8.2089939211391	0.85261822506980
8.1932893686800	0.85260013357957
8.1776447899618	0.85258214741695
8.1620598420909	0.85256426815521
8.1465341847826	0.85254649733878
8.1310674803363	0.85252883648340
8.1156593936113	0.85251128707623
8.1003095920022	0.85249385057598
8.0850177454153	0.85247652841303
8.0697835262450	0.85245932198956
8.0546066093498	0.85244223267969
8.0394866720300	0.85242526182959
8.0244233940043	0.85240841075762
8.0094164573871	0.85239168075447
7.9944655466667	0.85237507308328
7.9795703486825	0.85235858897977
7.9647305526036	0.85234222965238
7.9499458499072	0.85232599628240
7.9352159343568	0.85230989002411
7.9205405019815	0.85229391200492
7.9059192510549	0.85227806332549
7.8913518820742	0.85226234505988
7.8768380977404	0.85224675825567
7.8623776029373	0.85223130393413
7.8479701047120	0.85221598309033
7.8336153122550	0.85220079669330
7.8193129368805	0.85218574568614
7.8050626920073	0.85217083098622
7.7908642931393	0.85215605348523
7.7767174578470	0.85214141404943
7.7626219057483	0.85212691351969
7.7485773584906	0.85211255271173
7.7345835397317	0.85209833241617
7.7206401751223	0.85208425339875
7.7067469922879	0.85207031640044
7.6929037208109	0.85205652213759
7.6791100922131	0.85204287130207
7.6653658399386	0.85202936456144
7.6516706993364	0.85201600255907
7.6380244076433	0.85200278591432
7.6244267039674	0.85198971522263
7.6108773292714	0.85197679105576
7.5973760263558	0.85196401396185
7.5839225398432	0.85195138446561
7.5705166161616	0.85193890306850
7.5571580035291	0.85192657024880
7.5438464519376	0.85191438646186
7.5305817131374	0.85190235214017
7.5173635406219	0.85189046769356
7.5041916896120	0.85187873350933
7.4910659170415	0.85186714995242
7.4779859815415	0.85185571736554
7.4649516434263	0.85184443606936
7.4519626646781	0.85183330636263
7.4390188089330	0.85182232852234
7.4261198414664	0.85181150280389
7.4132655291790	0.85180082944126
7.4004556405826	0.85179030864712
7.3876899457861	0.85177994061302
7.3749682164822	0.85176972550952
7.3622902259332	0.85175966348641
7.3496557489581	0.85174975467276
7.3370645619187	0.85173999917720
7.3245164427071	0.85173039708799
7.3120111707317	0.85172094847319
7.2995485269053	0.85171165338086
7.2871282936315	0.85170251183919
7.2747502547925	0.85169352385665
7.2624141957364	0.85168468942218
7.2501199032648	0.85167600850531
7.2378671656205	0.85166748105637
7.2256557724753	0.85165910700659
7.2134855149182	0.85165088626831
7.2013561854432	0.85164281873513
7.1892675779376	0.85163490428204
7.1772194876706	0.85162714276562
7.1652117112811	0.85161953402419
7.1532440467669	0.85161207787796
7.1413162934731	0.85160477412919
7.1294282520809	0.85159762256239
7.1175797245964	0.85159062294441
7.1057705143399	0.85158377502468
7.0940004259347	0.85157707853532
7.0822692652965	0.85157053319132
7.0705768396226	0.85156413869072
7.0589229573817	0.85155789471473
7.0473074283028	0.85155180092792
7.0357300633654	0.85154585697840
7.0241906747891	0.85154006249795
7.0126890760234	0.85153441710219
7.0012250817375	0.85152892039076
6.9897985078107	0.85152357194748
6.9784091713222	0.85151837134048
6.9670568905415	0.85151331812241
6.9557414849188	0.85150841183059
6.9444627750753	0.85150365198714
6.9332205827937	0.85149903809921
6.9220147310090	0.85149456965905
6.9108450437990	0.85149024614428
6.8997113463751	0.85148606701798
6.8886134650735	0.85148203172886
6.8775512273457	0.85147813971146
6.8665244617499	0.85147439038629
6.8555329979419	0.85147078315999
6.8445766666667	0.85146731742550
6.8336552997493	0.85146399256222
6.8227687300865	0.85146080793619
6.8119167916383	0.85145776290023
6.8010993194192	0.85145485679411
6.7903161494904	0.85145208894473
6.7795671189507	0.85144945866627
6.7688520659291	0.85144696526035
6.7581708295762	0.85144460801619
6.7475232500563	0.85144238621079
6.7369091685393	0.85144029910908
6.7263284271932	0.85143834596411
6.7157808691756	0.85143652601714
6.7052663386267	0.85143483849790
6.6947846806610	0.85143328262469
6.6843357413601	0.85143185760455
6.6739193677649	0.85143056263344
6.6635354078684	0.85142939689638
6.6531837106081	0.85142835956765
6.6428641258586	0.85142744981090
6.6325765044248	0.85142666677935
6.6223206980340	0.85142600961595
6.6120965593295	0.85142547745351
6.6019039418630	0.85142506941490
6.5917427000879	0.85142478461320
6.5816126893524	0.85142462215183
6.5715137658922	0.85142458112477
6.5614457868243	0.85142466061665
6.5514086101399	0.85142485970297
6.5414020946978	0.85142517745024
6.5314261002179	0.85142561291613
6.5214804872743	0.85142616514962
6.5115651172893	0.85142683319121
6.5016798525266	0.85142761607302
6.4918245560849	0.85142851281897
6.4819990918919	0.85142952244498
6.4722033246978	0.85143064395904
6.4624371200690	0.85143187636145
6.4527003443823	0.85143321864495
6.4429928648184	0.85143466979485
6.4333145493562	0.85143622878924
6.4236652667667	0.85143789459911
6.4140448866068	0.85143966618849
6.4044532792138	0.85144154251466
6.3948903156997	0.85144352252828
6.3853558679446	0.85144560517352
6.3758498085921	0.85144778938825
6.3663720110427	0.85145007410420
6.3569223494487	0.85145245824706
6.3475006987084	0.85145494073671
6.3381069344609	0.85145752048732
6.3287409330800	0.85146019640752
6.3194025716695	0.85146296740055
6.3100917280572	0.85146583236441
6.3008082807902	0.85146879019205
6.2915521091291	0.85147183977144
6.2823230930427	0.85147497998582
6.2731211132036	0.85147820971378
6.2639460509820	0.85148152782943
6.2547977884415	0.85148493320255
6.2456762083333	0.85148842469877
6.2365811940919	0.85149200117967
6.2275126298297	0.85149566150296
6.2184704003319	0.85149940452263
6.2094543910522	0.85150322908907
6.2004644881075	0.85150713404925
6.1915005782734	0.85151111824685
6.1825625489792	0.85151518052242
6.1736502883031	0.85151931971351
6.1647636849681	0.85152353465482
6.1559026283368	0.85152782417835
6.1470670084068	0.85153218711357
6.1382567158067	0.85153662228749
6.1294716417910	0.85154112852489
6.1207116782360	0.85154570464840
6.1119767176351	0.85155034947870
6.1032666530945	0.85155506183460
6.0945813783289	0.85155984053322
6.0859207876573	0.85156468439013
6.0772847759984	0.85156959221949
6.0686732388664	0.85157456283416
6.0600860723671	0.85157959504588
6.0515231731934	0.85158468766540
6.0429844386212	0.85158983950260
6.0344697665056	0.85159504936665
6.0259790552764	0.85160031606611
6.0175122039342	0.85160563840913
6.0090691120465	0.85161101520352
6.0006496797438	0.85161644525693
5.9922538077154	0.85162192737698
5.9838813972056	0.85162746037135
5.9755323500100	0.85163304304798
5.9672065684713	0.85163867421516
5.9589039554760	0.85164435268167
5.9506244144502	0.85165007725693
5.9423678493558	0.85165584675109
5.9341341646873	0.85166165997521
5.9259232654675	0.85166751574137
5.9177350572444	0.85167341286278
5.9095694460871	0.85167935015393
5.9014263385827	0.85168532643071
5.8933056418321	0.85169134051056
5.8852072634472	0.85169739121256
5.8771311115468	0.85170347735756
5.8690770947533	0.85170959776836
5.8610451221896	0.85171575126974
5.8530351034752	0.85172193668868
5.8450469487229	0.85172815285441
5.8370805685358	0.85173439859859
5.8291358740035	0.85174067275537
5.8212127766990	0.85174697416158
5.8133111886756	0.85175330165679
5.8054310224632	0.85175965408347
5.7975721910656	0.85176603028708
5.7897346079567	0.85177242911621
5.7819181870781	0.85177884942269
5.7741228428351	0.85178529006170
5.7663484900942	0.85179174989189
5.7585950441798	0.85179822777551
5.7508624208709	0.85180472257849
5.7431505363985	0.85181123317060
5.7354593074421	0.85181775842550
5.7277886511272	0.85182429722093
5.7201384850219	0.85183084843876
5.7125087271341	0.85183741096511
5.7048992959087	0.85184398369048
5.6973101102242	0.85185056550986
5.6897410893908	0.85185715532282
5.6821921531463	0.85186375203361
5.6746632216544	0.85187035455129
5.6671542155009	0.85187696178984
5.6596650556919	0.85188357266822
5.6521956636501	0.85189018611053
5.6447459612126	0.85189680104608
5.6373158706281	0.85190341640949
5.6299053145540	0.85191003114083
5.6225142160540	0.85191664418564
5.6151424985952	0.85192325449513
5.6077900860456	0.85192986102622
5.6004569026714	0.85193646274161
5.5931428731343	0.85194305860997
5.5858479224893	0.85194964760594
5.5785719761816	0.85195622871029
5.5713149600446	0.85196280090997
5.5640768002970	0.85196936319825
5.5568574235403	0.85197591457475
5.5496567567568	0.85198245404561
5.5424747273063	0.85198898062352
5.5353112629247	0.85199549332781
5.5281662917204	0.85200199118460
5.5210397421731	0.85200847322680
5.5139315431304	0.85201493849429
5.5068416238060	0.85202138603393
5.4997699137773	0.85202781489967
5.4927163429828	0.85203422415266
5.4856808417200	0.85204061286131
5.4786633406433	0.85204698010136
5.4716637707611	0.85205332495600
5.4646820634342	0.85205964651591
5.4577181503732	0.85206594387936
5.4507719636364	0.85207221615229
5.4438434356274	0.85207846244839
5.4369324990932	0.85208468188916
5.4300390871219	0.85209087360401
5.4231631331404	0.85209703673030
5.4163045709124	0.85210317041347
5.4094633345363	0.85210927380704
5.4026393584430	0.85211534607275
5.3958325773938	0.85212138638059
5.3890429264785	0.85212739390888
5.3822703411131	0.85213336784435
5.3755147570378	0.85213930738219
5.3687761103152	0.85214521172614
5.3620543373278	0.85215108008852
5.3553493747767	0.85215691169033
5.3486611596789	0.85216270576131
5.3419896293656	0.85216846153998
5.3353347214807	0.85217417827373
5.3286963739780	0.85217985521884
5.3220745251198	0.85218549164061
5.3154691134752	0.85219108681333
5.3088800779175	0.85219664002043
5.3023073576229	0.85220215055446
5.2957508920685	0.85220761771719
5.2892106210303	0.85221304081965
5.2826864845815	0.85221841918218
5.2761784230905	0.85222375213450
5.2696863772192	0.85222903901574
5.2632102879213	0.85223427917452
5.2567500964405	0.85223947196896
5.2503057443082	0.85224461676675
5.2438771733427	0.85224971294523
5.2374643256464	0.85225475989136
5.2310671436050	0.85225975700185
5.2246855698850	0.85226470368313
5.2183195474326	0.85226959935144
5.2119690194715	0.85227444343288
5.2056339295016	0.85227923536340
5.1993142212973	0.85228397458889
5.1930098389052	0.85228866056520
5.1867207266436	0.85229329275817
5.1804468290997	0.85229787064368
5.1741880911288	0.85230239370769
5.1679444578521	0.85230686144626
5.1617158746556	0.85231127336559
5.1555022871883	0.85231562898205
5.1493036413604	0.85231992782222
5.1431198833419	0.85232416942291
5.1369509595613	0.85232835333122
5.1307968167037	0.85233247910450
5.1246574017094	0.85233654631046
5.1185326617722	0.85234055452713
5.1124225443383	0.85234450334293
5.1063269971044	0.85234839235667
5.1002459680163	0.85235222117759
5.0941794052676	0.85235598942534
5.0881272572980	0.85235969673007
5.0820894727920	0.85236334273238
5.0760660006773	0.85236692708341
5.0700567901235	0.85237044944477
5.0640617905405	0.85237390948864
5.0580809515775	0.85237730689774
5.0521142231210	0.85238064136535
5.0461615552937	0.85238391259534
5.0402228984533	0.85238712030214
5.0342982031906	0.85239026421081
5.0283874203287	0.85239334405702
5.0224905009214	0.85239635958704
5.0166073962517	0.85239931055777
5.0107380578305	0.85240219673677
5.0048824373957	0.85240501790220
4.9990404869101	0.85240777384290
4.9932121585610	0.85241046435832
4.9873974047579	0.85241308925858
4.9815961781323	0.85241564836446
4.9758084315353	0.85241814150738
4.9700341180371	0.85242056852938
4.9642731909256	0.85242292928320
4.9585256037049	0.85242522363218
4.9527913100942	0.85242745145032
4.9470702640264	0.85242961262225
4.9413624196473	0.85243170704322
4.9356677313138	0.85243373461911
4.9299861535932	0.85243569526639
4.9243176412615	0.85243758891215
4.9186621493027	0.85243941549407
4.9130196329072	0.85244117496040
4.9073900474709	0.85244286726994
4.9017733485939	0.85244449239207
4.8961694920790	0.85244605030667
4.8905784339315	0.85244754100418
4.8850001303569	0.85244896448550
4.8794345377604	0.85245032076203
4.8738816127459	0.85245160985563
4.8683413121143	0.85245283179860
4.8628135928629	0.85245398663366
4.8572984121841	0.85245507441393
4.8517957274640	0.85245609520289
4.8463054962819	0.85245704907439
4.8408276764088	0.85245793611257
4.8353622258065	0.85245875641187
