#Parameters = {thARC=0.6; nARC=1; thsub=1; p=1; nSub=2.5}
#"Wavelength / um"	"T (328) [Real Part]"
#---------------------------------------
14.989622900000	0.81632652187835
14.937342202292	0.81633192969158
14.885424925521	0.81633715294840
14.833867293419	0.81634219488966
14.782665581854	0.81634705872330
14.731816117936	0.81635174762443
14.681315279138	0.81635626473547
14.631159492435	0.81636061316634
14.581345233463	0.81636479599452
14.531869025691	0.81636881626524
14.482727439614	0.81637267699160
14.433917091960	0.81637638115471
14.385434644914	0.81637993170382
14.337276805356	0.81638333155648
14.289440324118	0.81638658359870
14.241921995249	0.81638969068503
14.194718655303	0.81639265563877
14.147827182633	0.81639548125210
14.101244496707	0.81639817028619
14.054967557431	0.81640072547142
14.008993364486	0.81640314950744
13.963318956684	0.81640544506341
13.917941411328	0.81640761477808
13.872857843591	0.81640966126000
13.828065405904	0.81641158708761
13.783561287356	0.81641339480946
13.739342713107	0.81641508694433
13.695406943810	0.81641666598136
13.651751275046	0.81641813438028
13.608373036768	0.81641949457149
13.565269592760	0.81642074895628
13.522438340099	0.81642189990694
13.479876708633	0.81642294976696
13.437582160466	0.81642390085114
13.395552189455	0.81642475544583
13.353784320713	0.81642551580900
13.312276110124	0.81642618417048
13.271025143869	0.81642676273208
13.230029037952	0.81642725366776
13.189285437747	0.81642765912381
13.148792017544	0.81642798121898
13.108546480105	0.81642822204471
13.068546556234	0.81642838366523
13.028790004346	0.81642846811775
12.989274610052	0.81642847741264
12.949998185745	0.81642841353359
12.910958570198	0.81642827843776
12.872153628167	0.81642807405600
12.833581250000	0.81642780229293
12.795239351259	0.81642746502722
12.757125872340	0.81642706411166
12.719238778108	0.81642660137340
12.681576057530	0.81642607861409
12.644135723323	0.81642549761003
12.606915811606	0.81642486011240
12.569914381551	0.81642416784737
12.533129515050	0.81642342251634
12.496559316382	0.81642262579603
12.460201911887	0.81642177933870
12.424055449648	0.81642088477235
12.388118099174	0.81641994370083
12.352388051092	0.81641895770405
12.316863516845	0.81641792833815
12.281542728390	0.81641685713568
12.246423937908	0.81641574560573
12.211505417515	0.81641459523418
12.176785458976	0.81641340748380
12.142262373431	0.81641218379449
12.107934491115	0.81641092558337
12.073800161095	0.81640963424506
12.039857751004	0.81640831115175
12.006105646776	0.81640695765346
11.972542252396	0.81640557507816
11.939165989646	0.81640416473196
11.905975297855	0.81640272789929
11.872968633663	0.81640126584307
11.840144470774	0.81639977980489
11.807501299724	0.81639827100518
11.775037627651	0.81639674064338
11.742751978065	0.81639518989811
11.710642890625	0.81639361992737
11.678708920919	0.81639203186868
11.646948640249	0.81639042683928
11.615360635413	0.81638880593630
11.583943508501	0.81638717023691
11.552695876686	0.81638552079853
11.521616372022	0.81638385865899
11.490703641242	0.81638218483666
11.459956345566	0.81638050033071
11.429373160503	0.81637880612121
11.398952775665	0.81637710316932
11.368693894577	0.81637539241750
11.338595234493	0.81637367478962
11.308655526217	0.81637195119119
11.278873513920	0.81637022250948
11.249247954972	0.81636848961373
11.219777619760	0.81636675335533
11.190461291527	0.81636501456793
11.161297766195	0.81636327406768
11.132285852209	0.81636153265336
11.103424370370	0.81635979110656
11.074712153676	0.81635805019185
11.046148047163	0.81635631065696
11.017730907755	0.81635457323292
10.989459604106	0.81635283863426
10.961333016453	0.81635110755917
10.933350036470	0.81634938068964
10.905509567115	0.81634765869168
10.877810522496	0.81634594221544
10.850251827723	0.81634423189539
10.822832418773	0.81634252835050
10.795551242348	0.81634083218441
10.768407255747	0.81633914398554
10.741399426729	0.81633746432733
10.714526733381	0.81633579376837
10.687788163993	0.81633413285254
10.661182716927	0.81633248210922
10.634709400497	0.81633084205342
10.608367232838	0.81632921318596
10.582155241793	0.81632759599361
10.556072464789	0.81632599094927
10.530117948718	0.81632439851214
10.504290749825	0.81632281912786
10.478589933590	0.81632125322867
10.453014574616	0.81631970123358
10.427563756522	0.81631816354851
10.402236571825	0.81631664056649
10.377032121841	0.81631513266777
10.351949516575	0.81631364021999
10.326987874612	0.81631216357836
10.302146323024	0.81631070308578
10.277423997257	0.81630925907304
10.252820041040	0.81630783185891
10.228333606278	0.81630642175035
10.203963852961	0.81630502904264
10.179709949066	0.81630365401955
10.155571070461	0.81630229695346
10.131546400811	0.81630095810554
10.107635131490	0.81629963772587
10.083836461487	0.81629833605363
10.060149597315	0.81629705331722
10.036573752929	0.81629578973442
10.013108149633	0.81629454551252
9.9897520159947	0.81629332084851
9.9665045877660	0.81629211592916
9.9433651077944	0.81629093093124
9.9203328259431	0.81628976602159
9.8974069990096	0.81628862135734
9.8745868906456	0.81628749708599
9.8518717712783	0.81628639334557
9.8292609180328	0.81628531026482
9.8067536146549	0.81628424796329
9.7843491514360	0.81628320655147
9.7620468251384	0.81628218613097
9.7398459389214	0.81628118679464
9.7177458022690	0.81628020862671
9.6957457309185	0.81627925170291
9.6738450467893	0.81627831609064
9.6520430779137	0.81627740184907
9.6303391583681	0.81627650902931
9.6087326282051	0.81627563767452
9.5872228333866	0.81627478782003
9.5658091257179	0.81627395949353
9.5444908627826	0.81627315271514
9.5232674078780	0.81627236749757
9.5021381299525	0.81627160384624
9.4811024035421	0.81627086175943
9.4601596087094	0.81627014122838
9.4393091309824	0.81626944223744
9.4185503612944	0.81626876476419
9.3978826959248	0.81626810877954
9.3773055364404	0.81626747424790
9.3568182896380	0.81626686112729
9.3364203674868	0.81626626936945
9.3161111870727	0.81626569891996
9.2958901705426	0.81626514971837
9.2757567450495	0.81626462169834
9.2557103426984	0.81626411478773
9.2357504004929	0.81626362890874
9.2158763602828	0.81626316397801
9.1960876687117	0.81626271990675
9.1763837771656	0.81626229660086
9.1567641417227	0.81626189396103
9.1372282231027	0.81626151188287
9.1177754866180	0.81626115025703
9.0984054021244	0.81626080896928
9.0791174439733	0.81626048790065
9.0599110909640	0.81626018692755
9.0407858262967	0.81625990592185
9.0217411375263	0.81625964475101
9.0027765165165	0.81625940327819
8.9838914593947	0.81625918136234
8.9650854665072	0.81625897885832
8.9463580423754	0.81625879561702
8.9277086956522	0.81625863148543
8.9091369390788	0.81625848630677
8.8906422894425	0.81625835992060
8.8722242675348	0.81625825216290
8.8538823981099	0.81625816286616
8.8356162098438	0.81625809185954
8.8174252352941	0.81625803896891
8.7993090108600	0.81625800401697
8.7812670767428	0.81625798682334
8.7632989769073	0.81625798720469
8.7454042590432	0.81625800497478
8.7275824745269	0.81625803994462
8.7098331783847	0.81625809192249
8.6921559292549	0.81625816071411
8.6745502893519	0.81625824612267
8.6570158244297	0.81625834794897
8.6395521037464	0.81625846599146
8.6221587000288	0.81625860004638
8.6048351894374	0.81625874990782
8.5875811515325	0.81625891536780
8.5703961692396	0.81625909621640
8.5532798288160	0.81625929224180
8.5362317198178	0.81625950323036
8.5192514350668	0.81625972896677
8.5023385706183	0.81625996923406
8.4854927257288	0.81626022381371
8.4687135028249	0.81626049248576
8.4520005074711	0.81626077502882
8.4353533483399	0.81626107122024
8.4187716371806	0.81626138083611
8.4022549887892	0.81626170365138
8.3858030209790	0.81626203943993
8.3694153545505	0.81626238797463
8.3530916132627	0.81626274902744
8.3368314238042	0.81626312236947
8.3206344157646	0.81626350777106
8.3045002216066	0.81626390500182
8.2884284766381	0.81626431383075
8.2724188189845	0.81626473402630
8.2564708895621	0.81626516535641
8.2405843320506	0.81626560758860
8.2247587928669	0.81626606049004
8.2089939211391	0.81626652382761
8.1932893686800	0.81626699736797
8.1776447899618	0.81626748087761
8.1620598420909	0.81626797412296
8.1465341847826	0.81626847687039
8.1310674803363	0.81626898888631
8.1156593936113	0.81626950993723
8.1003095920022	0.81627003978982
8.0850177454153	0.81627057821095
8.0697835262450	0.81627112496779
8.0546066093498	0.81627167982781
8.0394866720300	0.81627224255890
8.0244233940043	0.81627281292937
8.0094164573871	0.81627339070806
7.9944655466667	0.81627397566433
7.9795703486825	0.81627456756819
7.9647305526036	0.81627516619028
7.9499458499072	0.81627577130197
7.9352159343568	0.81627638267538
7.9205405019815	0.81627700008348
7.9059192510549	0.81627762330007
7.8913518820742	0.81627825209989
7.8768380977404	0.81627888625861
7.8623776029373	0.81627952555294
7.8479701047120	0.81628016976063
7.8336153122550	0.81628081866053
7.8193129368805	0.81628147203263
7.8050626920073	0.81628212965813
7.7908642931393	0.81628279131943
7.7767174578470	0.81628345680021
7.7626219057483	0.81628412588548
7.7485773584906	0.81628479836159
7.7345835397317	0.81628547401628
7.7206401751223	0.81628615263874
7.7067469922879	0.81628683401959
7.6929037208109	0.81628751795100
7.6791100922131	0.81628820422666
7.6653658399386	0.81628889264183
7.6516706993364	0.81628958299341
7.6380244076433	0.81629027507992
7.6244267039674	0.81629096870158
7.6108773292714	0.81629166366029
7.5973760263558	0.81629235975972
7.5839225398432	0.81629305680531
7.5705166161616	0.81629375460430
7.5571580035291	0.81629445296576
7.5438464519376	0.81629515170062
7.5305817131374	0.81629585062169
7.5173635406219	0.81629654954373
7.5041916896120	0.81629724828340
7.4910659170415	0.81629794665935
7.4779859815415	0.81629864449221
7.4649516434263	0.81629934160464
7.4519626646781	0.81630003782132
7.4390188089330	0.81630073296900
7.4261198414664	0.81630142687652
7.4132655291790	0.81630211937481
7.4004556405826	0.81630281029693
7.3876899457861	0.81630349947808
7.3749682164822	0.81630418675563
7.3622902259332	0.81630487196912
7.3496557489581	0.81630555496030
7.3370645619187	0.81630623557312
7.3245164427071	0.81630691365376
7.3120111707317	0.81630758905067
7.2995485269053	0.81630826161454
7.2871282936315	0.81630893119833
7.2747502547925	0.81630959765731
7.2624141957364	0.81631026084903
7.2501199032648	0.81631092063335
7.2378671656205	0.81631157687249
7.2256557724753	0.81631222943095
7.2134855149182	0.81631287817563
7.2013561854432	0.81631352297574
7.1892675779376	0.81631416370288
7.1772194876706	0.81631480023101
7.1652117112811	0.81631543243648
7.1532440467669	0.81631606019801
7.1413162934731	0.81631668339673
7.1294282520809	0.81631730191615
7.1175797245964	0.81631791564220
7.1057705143399	0.81631852446321
7.0940004259347	0.81631912826992
7.0822692652965	0.81631972695549
7.0705768396226	0.81632032041549
7.0589229573817	0.81632090854792
7.0473074283028	0.81632149125319
7.0357300633654	0.81632206843416
7.0241906747891	0.81632263999608
7.0126890760234	0.81632320584663
7.0012250817375	0.81632376589594
6.9897985078107	0.81632432005654
6.9784091713222	0.81632486824337
6.9670568905415	0.81632541037381
6.9557414849188	0.81632594636765
6.9444627750753	0.81632647614708
6.9332205827937	0.81632699963672
6.9220147310090	0.81632751676356
6.9108450437990	0.81632802745703
6.8997113463751	0.81632853164893
6.8886134650735	0.81632902927345
6.8775512273457	0.81632952026718
6.8665244617499	0.81633000456905
6.8555329979419	0.81633048212040
6.8445766666667	0.81633095286490
6.8336552997493	0.81633141674859
6.8227687300865	0.81633187371985
6.8119167916383	0.81633232372940
6.8010993194192	0.81633276673026
6.7903161494904	0.81633320267781
6.7795671189507	0.81633363152969
6.7688520659291	0.81633405324588
6.7581708295762	0.81633446778860
6.7475232500563	0.81633487512239
6.7369091685393	0.81633527521400
6.7263284271932	0.81633566803246
6.7157808691756	0.81633605354903
6.7052663386267	0.81633643173719
6.6947846806610	0.81633680257263
6.6843357413601	0.81633716603323
6.6739193677649	0.81633752209906
6.6635354078684	0.81633787075235
6.6531837106081	0.81633821197747
6.6428641258586	0.81633854576095
6.6325765044248	0.81633887209143
6.6223206980340	0.81633919095963
6.6120965593295	0.81633950235839
6.6019039418630	0.81633980628261
6.5917427000879	0.81634010272924
6.5816126893524	0.81634039169727
6.5715137658922	0.81634067318771
6.5614457868243	0.81634094720355
6.5514086101399	0.81634121374981
6.5414020946978	0.81634147283341
6.5314261002179	0.81634172446327
6.5214804872743	0.81634196865022
6.5115651172893	0.81634220540697
6.5016798525266	0.81634243474815
6.4918245560849	0.81634265669024
6.4819990918919	0.81634287125158
6.4722033246978	0.81634307845231
6.4624371200690	0.81634327831441
6.4527003443823	0.81634347086162
6.4429928648184	0.81634365611944
6.4333145493562	0.81634383411513
6.4236652667667	0.81634400487767
6.4140448866068	0.81634416843771
6.4044532792138	0.81634432482761
6.3948903156997	0.81634447408136
6.3853558679446	0.81634461623460
6.3758498085921	0.81634475132457
6.3663720110427	0.81634487939009
6.3569223494487	0.81634500047155
6.3475006987084	0.81634511461088
6.3381069344609	0.81634522185152
6.3287409330800	0.81634532223840
6.3194025716695	0.81634541581794
6.3100917280572	0.81634550263799
6.3008082807902	0.81634558274781
6.2915521091291	0.81634565619808
6.2823230930427	0.81634572304083
6.2731211132036	0.81634578332945
6.2639460509820	0.81634583711866
6.2547977884415	0.81634588446447
6.2456762083333	0.81634592542415
6.2365811940919	0.81634596005626
6.2275126298297	0.81634598842054
6.2184704003319	0.81634601057795
6.2094543910522	0.81634602659062
6.2004644881075	0.81634603652184
6.1915005782734	0.81634604043600
6.1825625489792	0.81634603839861
6.1736502883031	0.81634603047624
6.1647636849681	0.81634601673651
6.1559026283368	0.81634599724805
6.1470670084068	0.81634597208051
6.1382567158067	0.81634594130449
6.1294716417910	0.81634590499154
6.1207116782360	0.81634586321413
6.1119767176351	0.81634581604561
6.1032666530945	0.81634576356021
6.0945813783289	0.81634570583300
6.0859207876573	0.81634564293986
6.0772847759984	0.81634557495745
6.0686732388664	0.81634550196321
6.0600860723671	0.81634542403531
6.0515231731934	0.81634534125262
6.0429844386212	0.81634525369471
6.0344697665056	0.81634516144180
6.0259790552764	0.81634506457474
6.0175122039342	0.81634496317500
6.0090691120465	0.81634485732463
6.0006496797438	0.81634474710622
5.9922538077154	0.81634463260289
5.9838813972056	0.81634451389829
5.9755323500100	0.81634439107653
5.9672065684713	0.81634426422216
5.9589039554760	0.81634413342019
5.9506244144502	0.81634399875599
5.9423678493558	0.81634386031535
5.9341341646873	0.81634371818438
5.9259232654675	0.81634357244953
5.9177350572444	0.81634342319754
5.9095694460871	0.81634327051544
5.9014263385827	0.81634311449049
5.8933056418321	0.81634295521019
5.8852072634472	0.81634279276224
5.8771311115468	0.81634262723451
5.8690770947533	0.81634245871503
5.8610451221896	0.81634228729193
5.8530351034752	0.81634211305349
5.8450469487229	0.81634193608802
5.8370805685358	0.81634175648391
5.8291358740035	0.81634157432958
5.8212127766990	0.81634138971344
5.8133111886756	0.81634120272389
5.8054310224632	0.81634101344930
5.7975721910656	0.81634082197796
5.7897346079567	0.81634062839807
5.7819181870781	0.81634043279774
5.7741228428351	0.81634023526491
5.7663484900942	0.81634003588740
5.7585950441798	0.81633983475283
5.7508624208709	0.81633963194861
5.7431505363985	0.81633942756195
5.7354593074421	0.81633922167978
5.7277886511272	0.81633901438880
5.7201384850219	0.81633880577539
5.7125087271341	0.81633859592562
5.7048992959087	0.81633838492524
5.6973101102242	0.81633817285963
5.6897410893908	0.81633795981380
5.6821921531463	0.81633774587238
5.6746632216544	0.81633753111954
5.6671542155009	0.81633731563906
5.6596650556919	0.81633709951424
5.6521956636501	0.81633688282788
5.6447459612126	0.81633666566232
5.6373158706281	0.81633644809937
5.6299053145540	0.81633623022028
5.6225142160540	0.81633601210578
5.6151424985952	0.81633579383600
5.6077900860456	0.81633557549048
5.6004569026714	0.81633535714816
5.5931428731343	0.81633513888734
5.5858479224893	0.81633492078566
5.5785719761816	0.81633470292013
5.5713149600446	0.81633448536704
5.5640768002970	0.81633426820199
5.5568574235403	0.81633405149987
5.5496567567568	0.81633383533484
5.5424747273063	0.81633361978029
5.5353112629247	0.81633340490886
5.5281662917204	0.81633319079239
5.5210397421731	0.81633297750195
5.5139315431304	0.81633276510777
5.5068416238060	0.81633255367925
5.4997699137773	0.81633234328497
5.4927163429828	0.81633213399263
5.4856808417200	0.81633192586907
5.4786633406433	0.81633171898024
5.4716637707611	0.81633151339117
5.4646820634342	0.81633130916600
5.4577181503732	0.81633110636795
5.4507719636364	0.81633090505927
5.4438434356274	0.81633070530127
5.4369324990932	0.81633050715430
5.4300390871219	0.81633031067774
5.4231631331404	0.81633011592996
5.4163045709124	0.81632992296834
5.4094633345363	0.81632973184925
5.4026393584430	0.81632954262804
5.3958325773938	0.81632935535901
5.3890429264785	0.81632917009544
5.3822703411131	0.81632898688954
5.3755147570378	0.81632880579247
5.3687761103152	0.81632862685429
5.3620543373278	0.81632845012401
5.3553493747767	0.81632827564954
5.3486611596789	0.81632810347768
5.3419896293656	0.81632793365414
5.3353347214807	0.81632776622349
5.3286963739780	0.81632760122920
5.3220745251198	0.81632743871361
5.3154691134752	0.81632727871791
5.3088800779175	0.81632712128215
5.3023073576229	0.81632696644523
5.2957508920685	0.81632681424490
5.2892106210303	0.81632666471775
5.2826864845815	0.81632651789920
5.2761784230905	0.81632637382348
5.2696863772192	0.81632623252367
5.2632102879213	0.81632609403165
5.2567500964405	0.81632595837814
5.2503057443082	0.81632582559263
5.2438771733427	0.81632569570346
5.2374643256464	0.81632556873774
5.2310671436050	0.81632544472140
5.2246855698850	0.81632532367916
5.2183195474326	0.81632520563456
5.2119690194715	0.81632509060989
5.2056339295016	0.81632497862626
5.1993142212973	0.81632486970359
5.1930098389052	0.81632476386054
5.1867207266436	0.81632466111461
5.1804468290997	0.81632456148207
5.1741880911288	0.81632446497796
5.1679444578521	0.81632437161614
5.1617158746556	0.81632428140924
5.1555022871883	0.81632419436870
5.1493036413604	0.81632411050473
5.1431198833419	0.81632402982634
5.1369509595613	0.81632395234136
5.1307968167037	0.81632387805638
5.1246574017094	0.81632380697681
5.1185326617722	0.81632373910686
5.1124225443383	0.81632367444956
5.1063269971044	0.81632361300672
5.1002459680163	0.81632355477898
5.0941794052676	0.81632349976580
5.0881272572980	0.81632344796546
5.0820894727920	0.81632339937505
5.0760660006773	0.81632335399051
5.0700567901235	0.81632331180661
5.0640617905405	0.81632327281696
5.0580809515775	0.81632323701401
5.0521142231210	0.81632320438907
5.0461615552937	0.81632317493231
5.0402228984533	0.81632314863277
5.0342982031906	0.81632312547834
5.0283874203287	0.81632310545583
5.0224905009214	0.81632308855089
5.0166073962517	0.81632307474811
5.0107380578305	0.81632306403096
5.0048824373957	0.81632305638181
4.9990404869101	0.81632305178198
4.9932121585610	0.81632305021171
4.9873974047579	0.81632305165015
4.9815961781323	0.81632305607544
4.9758084315353	0.81632306346465
4.9700341180371	0.81632307379383
4.9642731909256	0.81632308703800
4.9585256037049	0.81632310317118
4.9527913100942	0.81632312216637
4.9470702640264	0.81632314399560
4.9413624196473	0.81632316862991
4.9356677313138	0.81632319603937
4.9299861535932	0.81632322619312
4.9243176412615	0.81632325905932
4.9186621493027	0.81632329460522
4.9130196329072	0.81632333279716
4.9073900474709	0.81632337360055
4.9017733485939	0.81632341697993
4.8961694920790	0.81632346289896
4.8905784339315	0.81632351132041
4.8850001303569	0.81632356220623
4.8794345377604	0.81632361551750
4.8738816127459	0.81632367121452
4.8683413121143	0.81632372925673
4.8628135928629	0.81632378960282
4.8572984121841	0.81632385221066
4.8517957274640	0.81632391703740
4.8463054962819	0.81632398403940
4.8408276764088	0.81632405317230
4.8353622258065	0.81632412439104
