#Parameters = {thARC=0; nARC=2; thsub=1; p=1; nSub=2.5}
#"Wavelength / um"	"T (349) [Real Part]"
#---------------------------------------
14.989622900000	0.81632663971345
14.937342202292	0.81632659084185
14.885424925521	0.81632654345784
14.833867293419	0.81632649754226
14.782665581854	0.81632645307604
14.731816117936	0.81632641004020
14.681315279138	0.81632636841586
14.631159492435	0.81632632818422
14.581345233463	0.81632628932659
14.531869025691	0.81632625182436
14.482727439614	0.81632621565903
14.433917091960	0.81632618081218
14.385434644914	0.81632614726548
14.337276805356	0.81632611500072
14.289440324118	0.81632608399976
14.241921995249	0.81632605424458
14.194718655303	0.81632602571722
14.147827182633	0.81632599839987
14.101244496707	0.81632597227476
14.054967557431	0.81632594732426
14.008993364486	0.81632592353081
13.963318956684	0.81632590087697
13.917941411328	0.81632587934538
13.872857843591	0.81632585891878
13.828065405904	0.81632583958002
13.783561287356	0.81632582131204
13.739342713107	0.81632580409789
13.695406943810	0.81632578792069
13.651751275046	0.81632577276369
13.608373036768	0.81632575861024
13.565269592760	0.81632574544376
13.522438340099	0.81632573324780
13.479876708633	0.81632572200600
13.437582160466	0.81632571170210
13.395552189455	0.81632570231993
13.353784320713	0.81632569384344
13.312276110124	0.81632568625667
13.271025143869	0.81632567954377
13.230029037952	0.81632567368898
13.189285437747	0.81632566867665
13.148792017544	0.81632566449122
13.108546480105	0.81632566111726
13.068546556234	0.81632565853939
13.028790004346	0.81632565674240
12.989274610052	0.81632565571112
12.949998185745	0.81632565543053
12.910958570198	0.81632565588567
12.872153628167	0.81632565706173
12.833581250000	0.81632565894396
12.795239351259	0.81632566151774
12.757125872340	0.81632566476854
12.719238778108	0.81632566868193
12.681576057530	0.81632567324360
12.644135723323	0.81632567843934
12.606915811606	0.81632568425502
12.569914381551	0.81632569067664
12.533129515050	0.81632569769029
12.496559316382	0.81632570528218
12.460201911887	0.81632571343860
12.424055449648	0.81632572214595
12.388118099174	0.81632573139075
12.352388051092	0.81632574115962
12.316863516845	0.81632575143926
12.281542728390	0.81632576221649
12.246423937908	0.81632577347825
12.211505417515	0.81632578521157
12.176785458976	0.81632579740356
12.142262373431	0.81632581004148
12.107934491115	0.81632582311266
12.073800161095	0.81632583660455
12.039857751004	0.81632585050470
12.006105646776	0.81632586480075
11.972542252396	0.81632587948047
11.939165989646	0.81632589453172
11.905975297855	0.81632590994247
11.872968633663	0.81632592570077
11.840144470774	0.81632594179481
11.807501299724	0.81632595821287
11.775037627651	0.81632597494331
11.742751978065	0.81632599197464
11.710642890625	0.81632600929543
11.678708920919	0.81632602689437
11.646948640249	0.81632604476027
11.615360635413	0.81632606288202
11.583943508501	0.81632608124863
11.552695876686	0.81632609984920
11.521616372022	0.81632611867294
11.490703641242	0.81632613770916
11.459956345566	0.81632615694728
11.429373160503	0.81632617637682
11.398952775665	0.81632619598739
11.368693894577	0.81632621576873
11.338595234493	0.81632623571066
11.308655526217	0.81632625580311
11.278873513920	0.81632627603611
11.249247954972	0.81632629639980
11.219777619760	0.81632631688441
11.190461291527	0.81632633748029
11.161297766195	0.81632635817787
11.132285852209	0.81632637896770
11.103424370370	0.81632639984042
11.074712153676	0.81632642078678
11.046148047163	0.81632644179762
11.017730907755	0.81632646286389
10.989459604106	0.81632648397665
10.961333016453	0.81632650512704
10.933350036470	0.81632652630632
10.905509567115	0.81632654750583
10.877810522496	0.81632656871703
10.850251827723	0.81632658993147
10.822832418773	0.81632661114080
10.795551242348	0.81632663233677
10.768407255747	0.81632665351124
10.741399426729	0.81632667465616
10.714526733381	0.81632669576357
10.687788163993	0.81632671682563
10.661182716927	0.81632673783458
10.634709400497	0.81632675878276
10.608367232838	0.81632677966263
10.582155241793	0.81632680046672
10.556072464789	0.81632682118768
10.530117948718	0.81632684181823
10.504290749825	0.81632686235123
10.478589933590	0.81632688277959
10.453014574616	0.81632690309635
10.427563756522	0.81632692329464
10.402236571825	0.81632694336767
10.377032121841	0.81632696330876
10.351949516575	0.81632698311133
10.326987874612	0.81632700276888
10.302146323024	0.81632702227503
10.277423997257	0.81632704162346
10.252820041040	0.81632706080798
10.228333606278	0.81632707982247
10.203963852961	0.81632709866092
10.179709949066	0.81632711731740
10.155571070461	0.81632713578607
10.131546400811	0.81632715406122
10.107635131490	0.81632717213718
10.083836461487	0.81632719000842
10.060149597315	0.81632720766947
10.036573752929	0.81632722511497
10.013108149633	0.81632724233963
9.9897520159947	0.81632725933828
9.9665045877660	0.81632727610583
9.9433651077944	0.81632729263727
9.9203328259431	0.81632730892770
9.8974069990096	0.81632732497228
9.8745868906456	0.81632734076630
9.8518717712783	0.81632735630511
9.8292609180328	0.81632737158415
9.8067536146549	0.81632738659896
9.7843491514360	0.81632740134517
9.7620468251384	0.81632741581849
9.7398459389214	0.81632743001472
9.7177458022690	0.81632744392975
9.6957457309185	0.81632745755955
9.6738450467893	0.81632747090019
9.6520430779137	0.81632748394781
9.6303391583681	0.81632749669864
9.6087326282051	0.81632750914901
9.5872228333866	0.81632752129531
9.5658091257179	0.81632753313405
9.5444908627826	0.81632754466178
9.5232674078780	0.81632755587518
9.5021381299525	0.81632756677098
9.4811024035421	0.81632757734600
9.4601596087094	0.81632758759715
9.4393091309824	0.81632759752143
9.4185503612944	0.81632760711590
9.3978826959248	0.81632761637772
9.3773055364404	0.81632762530412
9.3568182896380	0.81632763389242
9.3364203674868	0.81632764214002
9.3161111870727	0.81632765004439
9.2958901705426	0.81632765760309
9.2757567450495	0.81632766481375
9.2557103426984	0.81632767167409
9.2357504004929	0.81632767818190
9.2158763602828	0.81632768433505
9.1960876687117	0.81632769013149
9.1763837771656	0.81632769556925
9.1567641417227	0.81632770064643
9.1372282231027	0.81632770536120
9.1177754866180	0.81632770971182
9.0984054021244	0.81632771369663
9.0791174439733	0.81632771731402
9.0599110909640	0.81632772056248
9.0407858262967	0.81632772344055
9.0217411375263	0.81632772594688
9.0027765165165	0.81632772808015
8.9838914593947	0.81632772983914
8.9650854665072	0.81632773122269
8.9463580423754	0.81632773222974
8.9277086956522	0.81632773285925
8.9091369390788	0.81632773311030
8.8906422894425	0.81632773298202
8.8722242675348	0.81632773247360
8.8538823981099	0.81632773158432
8.8356162098438	0.81632773031352
8.8174252352941	0.81632772866059
8.7993090108600	0.81632772662504
8.7812670767428	0.81632772420638
8.7632989769073	0.81632772140425
8.7454042590432	0.81632771821832
8.7275824745269	0.81632771464832
8.7098331783847	0.81632771069408
8.6921559292549	0.81632770635547
8.6745502893519	0.81632770163243
8.6570158244297	0.81632769652497
8.6395521037464	0.81632769103316
8.6221587000288	0.81632768515713
8.6048351894374	0.81632767889707
8.5875811515325	0.81632767225325
8.5703961692396	0.81632766522600
8.5532798288160	0.81632765781568
8.5362317198178	0.81632765002275
8.5192514350668	0.81632764184771
8.5023385706183	0.81632763329112
8.4854927257288	0.81632762435361
8.4687135028249	0.81632761503587
8.4520005074711	0.81632760533863
8.4353533483399	0.81632759526270
8.4187716371806	0.81632758480893
8.4022549887892	0.81632757397825
8.3858030209790	0.81632756277161
8.3694153545505	0.81632755119005
8.3530916132627	0.81632753923466
8.3368314238042	0.81632752690657
8.3206344157646	0.81632751420698
8.3045002216066	0.81632750113713
8.2884284766381	0.81632748769833
8.2724188189845	0.81632747389193
8.2564708895621	0.81632745971935
8.2405843320506	0.81632744518202
8.2247587928669	0.81632743028148
8.2089939211391	0.81632741501929
8.1932893686800	0.81632739939705
8.1776447899618	0.81632738341642
8.1620598420909	0.81632736707913
8.1465341847826	0.81632735038694
8.1310674803363	0.81632733334165
8.1156593936113	0.81632731594513
8.1003095920022	0.81632729819927
8.0850177454153	0.81632728010604
8.0697835262450	0.81632726166744
8.0546066093498	0.81632724288550
8.0394866720300	0.81632722376233
8.0244233940043	0.81632720430005
8.0094164573871	0.81632718450086
7.9944655466667	0.81632716436697
7.9795703486825	0.81632714390066
7.9647305526036	0.81632712310423
7.9499458499072	0.81632710198003
7.9352159343568	0.81632708053048
7.9205405019815	0.81632705875800
7.9059192510549	0.81632703666507
7.8913518820742	0.81632701425421
7.8768380977404	0.81632699152797
7.8623776029373	0.81632696848897
7.8479701047120	0.81632694513982
7.8336153122550	0.81632692148322
7.8193129368805	0.81632689752186
7.8050626920073	0.81632687325851
7.7908642931393	0.81632684869594
7.7767174578470	0.81632682383698
7.7626219057483	0.81632679868449
7.7485773584906	0.81632677324137
7.7345835397317	0.81632674751053
7.7206401751223	0.81632672149495
7.7067469922879	0.81632669519763
7.6929037208109	0.81632666862158
7.6791100922131	0.81632664176987
7.6653658399386	0.81632661464560
7.6516706993364	0.81632658725189
7.6380244076433	0.81632655959190
7.6244267039674	0.81632653166881
7.6108773292714	0.81632650348585
7.5973760263558	0.81632647504626
7.5839225398432	0.81632644635331
7.5705166161616	0.81632641741031
7.5571580035291	0.81632638822060
7.5438464519376	0.81632635878752
7.5305817131374	0.81632632911447
7.5173635406219	0.81632629920487
7.5041916896120	0.81632626906214
7.4910659170415	0.81632623868976
7.4779859815415	0.81632620809121
7.4649516434263	0.81632617727000
7.4519626646781	0.81632614622968
7.4390188089330	0.81632611497380
7.4261198414664	0.81632608350594
7.4132655291790	0.81632605182972
7.4004556405826	0.81632601994876
7.3876899457861	0.81632598786671
7.3749682164822	0.81632595558723
7.3622902259332	0.81632592311402
7.3496557489581	0.81632589045079
7.3370645619187	0.81632585760126
7.3245164427071	0.81632582456919
7.3120111707317	0.81632579135833
7.2995485269053	0.81632575797247
7.2871282936315	0.81632572441542
7.2747502547925	0.81632569069098
7.2624141957364	0.81632565680300
7.2501199032648	0.81632562275532
7.2378671656205	0.81632558855180
7.2256557724753	0.81632555419634
7.2134855149182	0.81632551969281
7.2013561854432	0.81632548504512
7.1892675779376	0.81632545025721
7.1772194876706	0.81632541533299
7.1652117112811	0.81632538027642
7.1532440467669	0.81632534509145
7.1413162934731	0.81632530978206
7.1294282520809	0.81632527435221
7.1175797245964	0.81632523880591
7.1057705143399	0.81632520314714
7.0940004259347	0.81632516737992
7.0822692652965	0.81632513150827
7.0705768396226	0.81632509553621
7.0589229573817	0.81632505946777
7.0473074283028	0.81632502330700
7.0357300633654	0.81632498705794
7.0241906747891	0.81632495072465
7.0126890760234	0.81632491431119
7.0012250817375	0.81632487782163
6.9897985078107	0.81632484126003
6.9784091713222	0.81632480463047
6.9670568905415	0.81632476793704
6.9557414849188	0.81632473118380
6.9444627750753	0.81632469437486
6.9332205827937	0.81632465751429
6.9220147310090	0.81632462060620
6.9108450437990	0.81632458365467
6.8997113463751	0.81632454666379
6.8886134650735	0.81632450963766
6.8775512273457	0.81632447258038
6.8665244617499	0.81632443549605
6.8555329979419	0.81632439838874
6.8445766666667	0.81632436126257
6.8336552997493	0.81632432412162
6.8227687300865	0.81632428696998
6.8119167916383	0.81632424981173
6.8010993194192	0.81632421265098
6.7903161494904	0.81632417549178
6.7795671189507	0.81632413833823
6.7688520659291	0.81632410119440
6.7581708295762	0.81632406406435
6.7475232500563	0.81632402695215
6.7369091685393	0.81632398986186
6.7263284271932	0.81632395279753
6.7157808691756	0.81632391576321
6.7052663386267	0.81632387876293
6.6947846806610	0.81632384180074
6.6843357413601	0.81632380488065
6.6739193677649	0.81632376800668
6.6635354078684	0.81632373118284
6.6531837106081	0.81632369441312
6.6428641258586	0.81632365770153
6.6325765044248	0.81632362105203
6.6223206980340	0.81632358446861
6.6120965593295	0.81632354795521
6.6019039418630	0.81632351151579
6.5917427000879	0.81632347515429
6.5816126893524	0.81632343887463
6.5715137658922	0.81632340268072
6.5614457868243	0.81632336657646
6.5514086101399	0.81632333056575
6.5414020946978	0.81632329465246
6.5314261002179	0.81632325884044
6.5214804872743	0.81632322313355
6.5115651172893	0.81632318753561
6.5016798525266	0.81632315205045
6.4918245560849	0.81632311668187
6.4819990918919	0.81632308143364
6.4722033246978	0.81632304630955
6.4624371200690	0.81632301131335
6.4527003443823	0.81632297644876
6.4429928648184	0.81632294171952
6.4333145493562	0.81632290712932
6.4236652667667	0.81632287268185
6.4140448866068	0.81632283838077
6.4044532792138	0.81632280422973
6.3948903156997	0.81632277023236
6.3853558679446	0.81632273639226
6.3758498085921	0.81632270271303
6.3663720110427	0.81632266919824
6.3569223494487	0.81632263585143
6.3475006987084	0.81632260267612
6.3381069344609	0.81632256967584
6.3287409330800	0.81632253685405
6.3194025716695	0.81632250421423
6.3100917280572	0.81632247175981
6.3008082807902	0.81632243949422
6.2915521091291	0.81632240742084
6.2823230930427	0.81632237554306
6.2731211132036	0.81632234386421
6.2639460509820	0.81632231238763
6.2547977884415	0.81632228111662
6.2456762083333	0.81632225005444
6.2365811940919	0.81632221920436
6.2275126298297	0.81632218856960
6.2184704003319	0.81632215815336
6.2094543910522	0.81632212795881
6.2004644881075	0.81632209798911
6.1915005782734	0.81632206824738
6.1825625489792	0.81632203873671
6.1736502883031	0.81632200946018
6.1647636849681	0.81632198042082
6.1559026283368	0.81632195162166
6.1470670084068	0.81632192306567
6.1382567158067	0.81632189475582
6.1294716417910	0.81632186669504
6.1207116782360	0.81632183888622
6.1119767176351	0.81632181133225
6.1032666530945	0.81632178403597
6.0945813783289	0.81632175700018
6.0859207876573	0.81632173022769
6.0772847759984	0.81632170372123
6.0686732388664	0.81632167748353
6.0600860723671	0.81632165151730
6.0515231731934	0.81632162582518
6.0429844386212	0.81632160040982
6.0344697665056	0.81632157527381
6.0259790552764	0.81632155041973
6.0175122039342	0.81632152585011
6.0090691120465	0.81632150156745
6.0006496797438	0.81632147757424
5.9922538077154	0.81632145387290
5.9838813972056	0.81632143046586
5.9755323500100	0.81632140735547
5.9672065684713	0.81632138454410
5.9589039554760	0.81632136203404
5.9506244144502	0.81632133982757
5.9423678493558	0.81632131792693
5.9341341646873	0.81632129633433
5.9259232654675	0.81632127505195
5.9177350572444	0.81632125408191
5.9095694460871	0.81632123342633
5.9014263385827	0.81632121308727
5.8933056418321	0.81632119306677
5.8852072634472	0.81632117336683
5.8771311115468	0.81632115398940
5.8690770947533	0.81632113493643
5.8610451221896	0.81632111620979
5.8530351034752	0.81632109781136
5.8450469487229	0.81632107974294
5.8370805685358	0.81632106200631
5.8291358740035	0.81632104460324
5.8212127766990	0.81632102753542
5.8133111886756	0.81632101080454
5.8054310224632	0.81632099441222
5.7975721910656	0.81632097836008
5.7897346079567	0.81632096264966
5.7819181870781	0.81632094728250
5.7741228428351	0.81632093226008
5.7663484900942	0.81632091758385
5.7585950441798	0.81632090325523
5.7508624208709	0.81632088927558
5.7431505363985	0.81632087564625
5.7354593074421	0.81632086236853
5.7277886511272	0.81632084944368
5.7201384850219	0.81632083687292
5.7125087271341	0.81632082465743
5.7048992959087	0.81632081279836
5.6973101102242	0.81632080129680
5.6897410893908	0.81632079015383
5.6821921531463	0.81632077937047
5.6746632216544	0.81632076894771
5.6671542155009	0.81632075888649
5.6596650556919	0.81632074918772
5.6521956636501	0.81632073985228
5.6447459612126	0.81632073088099
5.6373158706281	0.81632072227464
5.6299053145540	0.81632071403398
5.6225142160540	0.81632070615972
5.6151424985952	0.81632069865253
5.6077900860456	0.81632069151304
5.6004569026714	0.81632068474184
5.5931428731343	0.81632067833949
5.5858479224893	0.81632067230648
5.5785719761816	0.81632066664329
5.5713149600446	0.81632066135036
5.5640768002970	0.81632065642806
5.5568574235403	0.81632065187676
5.5496567567568	0.81632064769674
5.5424747273063	0.81632064388830
5.5353112629247	0.81632064045164
5.5281662917204	0.81632063738696
5.5210397421731	0.81632063469441
5.5139315431304	0.81632063237408
5.5068416238060	0.81632063042605
5.4997699137773	0.81632062885035
5.4927163429828	0.81632062764694
5.4856808417200	0.81632062681578
5.4786633406433	0.81632062635677
5.4716637707611	0.81632062626977
5.4646820634342	0.81632062655461
5.4577181503732	0.81632062721105
5.4507719636364	0.81632062823885
5.4438434356274	0.81632062963770
5.4369324990932	0.81632063140726
5.4300390871219	0.81632063354715
5.4231631331404	0.81632063605695
5.4163045709124	0.81632063893618
5.4094633345363	0.81632064218435
5.4026393584430	0.81632064580092
5.3958325773938	0.81632064978530
5.3890429264785	0.81632065413686
5.3822703411131	0.81632065885493
5.3755147570378	0.81632066393882
5.3687761103152	0.81632066938777
5.3620543373278	0.81632067520100
5.3553493747767	0.81632068137768
5.3486611596789	0.81632068791694
5.3419896293656	0.81632069481788
5.3353347214807	0.81632070207954
5.3286963739780	0.81632070970095
5.3220745251198	0.81632071768107
5.3154691134752	0.81632072601883
5.3088800779175	0.81632073471314
5.3023073576229	0.81632074376283
5.2957508920685	0.81632075316673
5.2892106210303	0.81632076292361
5.2826864845815	0.81632077303220
5.2761784230905	0.81632078349121
5.2696863772192	0.81632079429928
5.2632102879213	0.81632080545503
5.2567500964405	0.81632081695704
5.2503057443082	0.81632082880386
5.2438771733427	0.81632084099397
5.2374643256464	0.81632085352584
5.2310671436050	0.81632086639790
5.2246855698850	0.81632087960853
5.2183195474326	0.81632089315607
5.2119690194715	0.81632090703884
5.2056339295016	0.81632092125510
5.1993142212973	0.81632093580308
5.1930098389052	0.81632095068098
5.1867207266436	0.81632096588696
5.1804468290997	0.81632098141913
5.1741880911288	0.81632099727558
5.1679444578521	0.81632101345435
5.1617158746556	0.81632102995344
5.1555022871883	0.81632104677084
5.1493036413604	0.81632106390447
5.1431198833419	0.81632108135222
5.1369509595613	0.81632109911197
5.1307968167037	0.81632111718153
5.1246574017094	0.81632113555870
5.1185326617722	0.81632115424122
5.1124225443383	0.81632117322682
5.1063269971044	0.81632119251317
5.1002459680163	0.81632121209792
5.0941794052676	0.81632123197869
5.0881272572980	0.81632125215304
5.0820894727920	0.81632127261852
5.0760660006773	0.81632129337264
5.0700567901235	0.81632131441287
5.0640617905405	0.81632133573665
5.0580809515775	0.81632135734138
5.0521142231210	0.81632137922443
5.0461615552937	0.81632140138315
5.0402228984533	0.81632142381483
5.0342982031906	0.81632144651675
5.0283874203287	0.81632146948614
5.0224905009214	0.81632149272021
5.0166073962517	0.81632151621614
5.0107380578305	0.81632153997107
5.0048824373957	0.81632156398210
4.9990404869101	0.81632158824631
4.9932121585610	0.81632161276076
4.9873974047579	0.81632163752245
4.9815961781323	0.81632166252838
4.9758084315353	0.81632168777549
4.9700341180371	0.81632171326071
4.9642731909256	0.81632173898093
4.9585256037049	0.81632176493302
4.9527913100942	0.81632179111380
4.9470702640264	0.81632181752010
4.9413624196473	0.81632184414868
4.9356677313138	0.81632187099629
4.9299861535932	0.81632189805964
4.9243176412615	0.81632192533544
4.9186621493027	0.81632195282034
4.9130196329072	0.81632198051098
4.9073900474709	0.81632200840396
4.9017733485939	0.81632203649587
4.8961694920790	0.81632206478326
4.8905784339315	0.81632209326266
4.8850001303569	0.81632212193057
4.8794345377604	0.81632215078347
4.8738816127459	0.81632217981781
4.8683413121143	0.81632220903001
4.8628135928629	0.81632223841648
4.8572984121841	0.81632226797358
4.8517957274640	0.81632229769767
4.8463054962819	0.81632232758509
4.8408276764088	0.81632235763213
4.8353622258065	0.81632238783507
