#Parameters = {thARC=0; nARC=1.75; thsub=1; p=1; nSub=2.5}
#"Wavelength / um"	"T (343) [Real Part]"
#---------------------------------------
14.989622900000	0.81632663923627
14.937342202292	0.81632659036651
14.885424925521	0.81632654298437
14.833867293419	0.81632649707069
14.782665581854	0.81632645260641
14.731816117936	0.81632640957254
14.681315279138	0.81632636795020
14.631159492435	0.81632632772059
14.581345233463	0.81632628886503
14.531869025691	0.81632625136490
14.482727439614	0.81632621520169
14.433917091960	0.81632618035699
14.385434644914	0.81632614681248
14.337276805356	0.81632611454994
14.289440324118	0.81632608355123
14.241921995249	0.81632605379832
14.194718655303	0.81632602527328
14.147827182633	0.81632599795826
14.101244496707	0.81632597183552
14.054967557431	0.81632594688741
14.008993364486	0.81632592309639
13.963318956684	0.81632590044500
13.917941411328	0.81632587891589
13.872857843591	0.81632585849180
13.828065405904	0.81632583915558
13.783561287356	0.81632582089017
13.739342713107	0.81632580367861
13.695406943810	0.81632578750403
13.651751275046	0.81632577234968
13.608373036768	0.81632575819890
13.565269592760	0.81632574503512
13.522438340099	0.81632573284189
13.479876708633	0.81632572160284
13.437582160466	0.81632571130171
13.395552189455	0.81632570192235
13.353784320713	0.81632569344869
13.312276110124	0.81632568586478
13.271025143869	0.81632567915476
13.230029037952	0.81632567330287
13.189285437747	0.81632566829347
13.148792017544	0.81632566411100
13.108546480105	0.81632566074000
13.068546556234	0.81632565816514
13.028790004346	0.81632565637117
12.989274610052	0.81632565534294
12.949998185745	0.81632565506542
12.910958570198	0.81632565552366
12.872153628167	0.81632565670283
12.833581250000	0.81632565858820
12.795239351259	0.81632566116513
12.757125872340	0.81632566441911
12.719238778108	0.81632566833571
12.681576057530	0.81632567290061
12.644135723323	0.81632567809959
12.606915811606	0.81632568391853
12.569914381551	0.81632569034344
12.533129515050	0.81632569736040
12.496559316382	0.81632570495562
12.460201911887	0.81632571311538
12.424055449648	0.81632572182610
12.388118099174	0.81632573107429
12.352388051092	0.81632574084656
12.316863516845	0.81632575112962
12.281542728390	0.81632576191030
12.246423937908	0.81632577317552
12.211505417515	0.81632578491231
12.176785458976	0.81632579710781
12.142262373431	0.81632580974924
12.107934491115	0.81632582282395
12.073800161095	0.81632583631939
12.039857751004	0.81632585022310
12.006105646776	0.81632586452274
11.972542252396	0.81632587920606
11.939165989646	0.81632589426092
11.905975297855	0.81632590967530
11.872968633663	0.81632592543725
11.840144470774	0.81632594153495
11.807501299724	0.81632595795668
11.775037627651	0.81632597469082
11.742751978065	0.81632599172585
11.710642890625	0.81632600905036
11.678708920919	0.81632602665304
11.646948640249	0.81632604452269
11.615360635413	0.81632606264820
11.583943508501	0.81632608101859
11.552695876686	0.81632609962294
11.521616372022	0.81632611845048
11.490703641242	0.81632613749052
11.459956345566	0.81632615673247
11.429373160503	0.81632617616584
11.398952775665	0.81632619578027
11.368693894577	0.81632621556547
11.338595234493	0.81632623551127
11.308655526217	0.81632625560761
11.278873513920	0.81632627584451
11.249247954972	0.81632629621210
11.219777619760	0.81632631670063
11.190461291527	0.81632633730044
11.161297766195	0.81632635800196
11.132285852209	0.81632637879573
11.103424370370	0.81632639967241
11.074712153676	0.81632642062273
11.046148047163	0.81632644163755
11.017730907755	0.81632646270780
10.989459604106	0.81632648382455
10.961333016453	0.81632650497894
10.933350036470	0.81632652616223
10.905509567115	0.81632654736575
10.877810522496	0.81632656858098
10.850251827723	0.81632658979945
10.822832418773	0.81632661101281
10.795551242348	0.81632663221283
10.768407255747	0.81632665339135
10.741399426729	0.81632667454033
10.714526733381	0.81632669565180
10.687788163993	0.81632671671792
10.661182716927	0.81632673773094
10.634709400497	0.81632675868321
10.608367232838	0.81632677956716
10.582155241793	0.81632680037534
10.556072464789	0.81632682110039
10.530117948718	0.81632684173504
10.504290749825	0.81632686227214
10.478589933590	0.81632688270461
10.453014574616	0.81632690302548
10.427563756522	0.81632692322788
10.402236571825	0.81632694330502
10.377032121841	0.81632696325023
10.351949516575	0.81632698305692
10.326987874612	0.81632700271860
10.302146323024	0.81632702222887
10.277423997257	0.81632704158143
10.252820041040	0.81632706077007
10.228333606278	0.81632707978869
10.203963852961	0.81632709863127
10.179709949066	0.81632711729188
10.155571070461	0.81632713576469
10.131546400811	0.81632715404397
10.107635131490	0.81632717212407
10.083836461487	0.81632718999944
10.060149597315	0.81632720766462
10.036573752929	0.81632722511424
10.013108149633	0.81632724234304
9.9897520159947	0.81632725934582
9.9665045877660	0.81632727611750
9.9433651077944	0.81632729265307
9.9203328259431	0.81632730894762
9.8974069990096	0.81632732499633
9.8745868906456	0.81632734079446
9.8518717712783	0.81632735633739
9.8292609180328	0.81632737162055
9.8067536146549	0.81632738663948
9.7843491514360	0.81632740138980
9.7620468251384	0.81632741586722
9.7398459389214	0.81632743006756
9.7177458022690	0.81632744398669
9.6957457309185	0.81632745762058
9.6738450467893	0.81632747096531
9.6520430779137	0.81632748401702
9.6303391583681	0.81632749677193
9.6087326282051	0.81632750922638
9.5872228333866	0.81632752137675
9.5658091257179	0.81632753321956
9.5444908627826	0.81632754475135
9.5232674078780	0.81632755596880
9.5021381299525	0.81632756686865
9.4811024035421	0.81632757744772
9.4601596087094	0.81632758770291
9.4393091309824	0.81632759763121
9.4185503612944	0.81632760722971
9.3978826959248	0.81632761649554
9.3773055364404	0.81632762542595
9.3568182896380	0.81632763401826
9.3364203674868	0.81632764226985
9.3161111870727	0.81632765017820
9.2958901705426	0.81632765774088
9.2757567450495	0.81632766495551
9.2557103426984	0.81632767181981
9.2357504004929	0.81632767833157
9.2158763602828	0.81632768448866
9.1960876687117	0.81632769028904
9.1763837771656	0.81632769573072
9.1567641417227	0.81632770081181
9.1372282231027	0.81632770553049
9.1177754866180	0.81632770988501
9.0984054021244	0.81632771387370
9.0791174439733	0.81632771749496
9.0599110909640	0.81632772074728
9.0407858262967	0.81632772362921
9.0217411375263	0.81632772613937
9.0027765165165	0.81632772827647
8.9838914593947	0.81632773003928
8.9650854665072	0.81632773142664
8.9463580423754	0.81632773243748
8.9277086956522	0.81632773307078
8.9091369390788	0.81632773332560
8.8906422894425	0.81632773320107
8.8722242675348	0.81632773269639
8.8538823981099	0.81632773181084
8.8356162098438	0.81632773054376
8.8174252352941	0.81632772889454
8.7993090108600	0.81632772686267
8.7812670767428	0.81632772444770
8.7632989769073	0.81632772164923
8.7454042590432	0.81632771846694
8.7275824745269	0.81632771490059
8.7098331783847	0.81632771094997
8.6921559292549	0.81632770661496
8.6745502893519	0.81632770189552
8.6570158244297	0.81632769679163
8.6395521037464	0.81632769130338
8.6221587000288	0.81632768543089
8.6048351894374	0.81632767917437
8.5875811515325	0.81632767253407
8.5703961692396	0.81632766551031
8.5532798288160	0.81632765810347
8.5362317198178	0.81632765031401
8.5192514350668	0.81632764214242
8.5023385706183	0.81632763358927
8.4854927257288	0.81632762465518
8.4687135028249	0.81632761534083
8.4520005074711	0.81632760564698
8.4353533483399	0.81632759557441
8.4187716371806	0.81632758512399
8.4022549887892	0.81632757429664
8.3858030209790	0.81632756309331
8.3694153545505	0.81632755151505
8.3530916132627	0.81632753956293
8.3368314238042	0.81632752723810
8.3206344157646	0.81632751454175
8.3045002216066	0.81632750147512
8.2884284766381	0.81632748803953
8.2724188189845	0.81632747423631
8.2564708895621	0.81632746006688
8.2405843320506	0.81632744553271
8.2247587928669	0.81632743063529
8.2089939211391	0.81632741537620
8.1932893686800	0.81632739975705
8.1776447899618	0.81632738377949
8.1620598420909	0.81632736744525
8.1465341847826	0.81632735075608
8.1310674803363	0.81632733371380
8.1156593936113	0.81632731632026
8.1003095920022	0.81632729857737
8.0850177454153	0.81632728048708
8.0697835262450	0.81632726205140
8.0546066093498	0.81632724327236
8.0394866720300	0.81632722415207
8.0244233940043	0.81632720469266
8.0094164573871	0.81632718489630
7.9944655466667	0.81632716476523
7.9795703486825	0.81632714430170
7.9647305526036	0.81632712350805
7.9499458499072	0.81632710238661
7.9352159343568	0.81632708093978
7.9205405019815	0.81632705917000
7.9059192510549	0.81632703707976
7.8913518820742	0.81632701467155
7.8768380977404	0.81632699194796
7.8623776029373	0.81632696891157
7.8479701047120	0.81632694556502
7.8336153122550	0.81632692191098
7.8193129368805	0.81632689795217
7.8050626920073	0.81632687369134
7.7908642931393	0.81632684913127
7.7767174578470	0.81632682427479
7.7626219057483	0.81632679912475
7.7485773584906	0.81632677368405
7.7345835397317	0.81632674795562
7.7206401751223	0.81632672194242
7.7067469922879	0.81632669564745
7.6929037208109	0.81632666907373
7.6791100922131	0.81632664222433
7.6653658399386	0.81632661510234
7.6516706993364	0.81632658771089
7.6380244076433	0.81632656005313
7.6244267039674	0.81632653213225
7.6108773292714	0.81632650395147
7.5973760263558	0.81632647551404
7.5839225398432	0.81632644682322
7.5705166161616	0.81632641788234
7.5571580035291	0.81632638869470
7.5438464519376	0.81632635926368
7.5305817131374	0.81632632959267
7.5173635406219	0.81632629968507
7.5041916896120	0.81632626954432
7.4910659170415	0.81632623917389
7.4779859815415	0.81632620857727
7.4649516434263	0.81632617775797
7.4519626646781	0.81632614671952
7.4390188089330	0.81632611546549
7.4261198414664	0.81632608399946
7.4132655291790	0.81632605232504
7.4004556405826	0.81632602044585
7.3876899457861	0.81632598836554
7.3749682164822	0.81632595608778
7.3622902259332	0.81632592361626
7.3496557489581	0.81632589095469
7.3370645619187	0.81632585810680
7.3245164427071	0.81632582507633
7.3120111707317	0.81632579186706
7.2995485269053	0.81632575848276
7.2871282936315	0.81632572492723
7.2747502547925	0.81632569120430
7.2624141957364	0.81632565731779
7.2501199032648	0.81632562327156
7.2378671656205	0.81632558906947
7.2256557724753	0.81632555471539
7.2134855149182	0.81632552021323
7.2013561854432	0.81632548556688
7.1892675779376	0.81632545078028
7.1772194876706	0.81632541585734
7.1652117112811	0.81632538080203
7.1532440467669	0.81632534561829
7.1413162934731	0.81632531031009
7.1294282520809	0.81632527488141
7.1175797245964	0.81632523933625
7.1057705143399	0.81632520367860
7.0940004259347	0.81632516791247
7.0822692652965	0.81632513204187
7.0705768396226	0.81632509607084
7.0589229573817	0.81632506000340
7.0473074283028	0.81632502384361
7.0357300633654	0.81632498759550
7.0241906747891	0.81632495126313
7.0126890760234	0.81632491485055
7.0012250817375	0.81632487836185
6.9897985078107	0.81632484180108
6.9784091713222	0.81632480517233
6.9670568905415	0.81632476847967
6.9557414849188	0.81632473172718
6.9444627750753	0.81632469491895
6.9332205827937	0.81632465805908
6.9220147310090	0.81632462115164
6.9108450437990	0.81632458420074
6.8997113463751	0.81632454721047
6.8886134650735	0.81632451018492
6.8775512273457	0.81632447312818
6.8665244617499	0.81632443604436
6.8555329979419	0.81632439893755
6.8445766666667	0.81632436181183
6.8336552997493	0.81632432467131
6.8227687300865	0.81632428752007
6.8119167916383	0.81632425036220
6.8010993194192	0.81632421320178
6.7903161494904	0.81632417604291
6.7795671189507	0.81632413888964
6.7688520659291	0.81632410174606
6.7581708295762	0.81632406461624
6.7475232500563	0.81632402750424
6.7369091685393	0.81632399041412
6.7263284271932	0.81632395334993
6.7157808691756	0.81632391631573
6.7052663386267	0.81632387931553
6.6947846806610	0.81632384235339
6.6843357413601	0.81632380543333
6.6739193677649	0.81632376855935
6.6635354078684	0.81632373173548
6.6531837106081	0.81632369496571
6.6428641258586	0.81632365825402
6.6325765044248	0.81632362160441
6.6223206980340	0.81632358502084
6.6120965593295	0.81632354850726
6.6019039418630	0.81632351206764
6.5917427000879	0.81632347570590
6.5816126893524	0.81632343942597
6.5715137658922	0.81632340323177
6.5614457868243	0.81632336712720
6.5514086101399	0.81632333111614
6.5414020946978	0.81632329520246
6.5314261002179	0.81632325939004
6.5214804872743	0.81632322368271
6.5115651172893	0.81632318808431
6.5016798525266	0.81632315259866
6.4918245560849	0.81632311722955
6.4819990918919	0.81632308198078
6.4722033246978	0.81632304685611
6.4624371200690	0.81632301185929
6.4527003443823	0.81632297699407
6.4429928648184	0.81632294226417
6.4333145493562	0.81632290767328
6.4236652667667	0.81632287322508
6.4140448866068	0.81632283892325
6.4044532792138	0.81632280477144
6.3948903156997	0.81632277077326
6.3853558679446	0.81632273693233
6.3758498085921	0.81632270325224
6.3663720110427	0.81632266973656
6.3569223494487	0.81632263638883
6.3475006987084	0.81632260321258
6.3381069344609	0.81632257021132
6.3287409330800	0.81632253738853
6.3194025716695	0.81632250474768
6.3100917280572	0.81632247229221
6.3008082807902	0.81632244002553
6.2915521091291	0.81632240795104
6.2823230930427	0.81632237607212
6.2731211132036	0.81632234439210
6.2639460509820	0.81632231291433
6.2547977884415	0.81632228164209
6.2456762083333	0.81632225057866
6.2365811940919	0.81632221972730
6.2275126298297	0.81632218909124
6.2184704003319	0.81632215867367
6.2094543910522	0.81632212847776
6.2004644881075	0.81632209850668
6.1915005782734	0.81632206876353
6.1825625489792	0.81632203925142
6.1736502883031	0.81632200997343
6.1647636849681	0.81632198093258
6.1559026283368	0.81632195213189
6.1470670084068	0.81632192357436
6.1382567158067	0.81632189526294
6.1294716417910	0.81632186720055
6.1207116782360	0.81632183939012
6.1119767176351	0.81632181183449
6.1032666530945	0.81632178453653
6.0945813783289	0.81632175749905
6.0859207876573	0.81632173072482
6.0772847759984	0.81632170421660
6.0686732388664	0.81632167797713
6.0600860723671	0.81632165200909
6.0515231731934	0.81632162631514
6.0429844386212	0.81632160089792
6.0344697665056	0.81632157576003
6.0259790552764	0.81632155090404
6.0175122039342	0.81632152633248
6.0090691120465	0.81632150204787
6.0006496797438	0.81632147805267
5.9922538077154	0.81632145434933
5.9838813972056	0.81632143094025
5.9755323500100	0.81632140782781
5.9672065684713	0.81632138501435
5.9589039554760	0.81632136250219
5.9506244144502	0.81632134029359
5.9423678493558	0.81632131839079
5.9341341646873	0.81632129679602
5.9259232654675	0.81632127551143
5.9177350572444	0.81632125453916
5.9095694460871	0.81632123388133
5.9014263385827	0.81632121354000
5.8933056418321	0.81632119351720
5.8852072634472	0.81632117381493
5.8771311115468	0.81632115443516
5.8690770947533	0.81632113537982
5.8610451221896	0.81632111665080
5.8530351034752	0.81632109824994
5.8450469487229	0.81632108017909
5.8370805685358	0.81632106244000
5.8291358740035	0.81632104503445
5.8212127766990	0.81632102796413
5.8133111886756	0.81632101123072
5.8054310224632	0.81632099483585
5.7975721910656	0.81632097878113
5.7897346079567	0.81632096306812
5.7819181870781	0.81632094769834
5.7741228428351	0.81632093267329
5.7663484900942	0.81632091799440
5.7585950441798	0.81632090366310
5.7508624208709	0.81632088968076
5.7431505363985	0.81632087604870
5.7354593074421	0.81632086276824
5.7277886511272	0.81632084984062
5.7201384850219	0.81632083726708
5.7125087271341	0.81632082504878
5.7048992959087	0.81632081318688
5.6973101102242	0.81632080168248
5.6897410893908	0.81632079053665
5.6821921531463	0.81632077975040
5.6746632216544	0.81632076932473
5.6671542155009	0.81632075926059
5.6596650556919	0.81632074955888
5.6521956636501	0.81632074022047
5.6447459612126	0.81632073124619
5.6373158706281	0.81632072263684
5.6299053145540	0.81632071439316
5.6225142160540	0.81632070651586
5.6151424985952	0.81632069900561
5.6077900860456	0.81632069186304
5.6004569026714	0.81632068508875
5.5931428731343	0.81632067868328
5.5858479224893	0.81632067264714
5.5785719761816	0.81632066698081
5.5713149600446	0.81632066168470
5.5640768002970	0.81632065675922
5.5568574235403	0.81632065220471
5.5496567567568	0.81632064802148
5.5424747273063	0.81632064420980
5.5353112629247	0.81632064076989
5.5281662917204	0.81632063770194
5.5210397421731	0.81632063500610
5.5139315431304	0.81632063268247
5.5068416238060	0.81632063073112
5.4997699137773	0.81632062915208
5.4927163429828	0.81632062794532
5.4856808417200	0.81632062711080
5.4786633406433	0.81632062664840
5.4716637707611	0.81632062655801
5.4646820634342	0.81632062683943
5.4577181503732	0.81632062749245
5.4507719636364	0.81632062851680
5.4438434356274	0.81632062991220
5.4369324990932	0.81632063167829
5.4300390871219	0.81632063381469
5.4231631331404	0.81632063632098
5.4163045709124	0.81632063919670
5.4094633345363	0.81632064244135
5.4026393584430	0.81632064605437
5.3958325773938	0.81632065003519
5.3890429264785	0.81632065438319
5.3822703411131	0.81632065909768
5.3755147570378	0.81632066417797
5.3687761103152	0.81632066962332
5.3620543373278	0.81632067543293
5.3553493747767	0.81632068160597
5.3486611596789	0.81632068814159
5.3419896293656	0.81632069503887
5.3353347214807	0.81632070229687
5.3286963739780	0.81632070991460
5.3220745251198	0.81632071789103
5.3154691134752	0.81632072622509
5.3088800779175	0.81632073491568
5.3023073576229	0.81632074396165
5.2957508920685	0.81632075336182
5.2892106210303	0.81632076311496
5.2826864845815	0.81632077321980
5.2761784230905	0.81632078367504
5.2696863772192	0.81632079447933
5.2632102879213	0.81632080563130
5.2567500964405	0.81632081712952
5.2503057443082	0.81632082897253
5.2438771733427	0.81632084115883
5.2374643256464	0.81632085368688
5.2310671436050	0.81632086655511
5.2246855698850	0.81632087976190
5.2183195474326	0.81632089330560
5.2119690194715	0.81632090718451
5.2056339295016	0.81632092139691
5.1993142212973	0.81632093594102
5.1930098389052	0.81632095081504
5.1867207266436	0.81632096601714
5.1804468290997	0.81632098154542
5.1741880911288	0.81632099739797
5.1679444578521	0.81632101357283
5.1617158746556	0.81632103006801
5.1555022871883	0.81632104688149
5.1493036413604	0.81632106401119
5.1431198833419	0.81632108145502
5.1369509595613	0.81632109921083
5.1307968167037	0.81632111727646
5.1246574017094	0.81632113564967
5.1185326617722	0.81632115432825
5.1124225443383	0.81632117330989
5.1063269971044	0.81632119259228
5.1002459680163	0.81632121217306
5.0941794052676	0.81632123204986
5.0881272572980	0.81632125222023
5.0820894727920	0.81632127268174
5.0760660006773	0.81632129343188
5.0700567901235	0.81632131446812
5.0640617905405	0.81632133578791
5.0580809515775	0.81632135738865
5.0521142231210	0.81632137926771
5.0461615552937	0.81632140142243
5.0402228984533	0.81632142385011
5.0342982031906	0.81632144654803
5.0283874203287	0.81632146951342
5.0224905009214	0.81632149274349
5.0166073962517	0.81632151623541
5.0107380578305	0.81632153998633
5.0048824373957	0.81632156399335
4.9990404869101	0.81632158825355
4.9932121585610	0.81632161276399
4.9873974047579	0.81632163752167
4.9815961781323	0.81632166252358
4.9758084315353	0.81632168776668
4.9700341180371	0.81632171324789
4.9642731909256	0.81632173896410
4.9585256037049	0.81632176491218
4.9527913100942	0.81632179108895
4.9470702640264	0.81632181749124
4.9413624196473	0.81632184411581
4.9356677313138	0.81632187095941
4.9299861535932	0.81632189801876
4.9243176412615	0.81632192529056
4.9186621493027	0.81632195277145
4.9130196329072	0.81632198045809
4.9073900474709	0.81632200834708
4.9017733485939	0.81632203643499
4.8961694920790	0.81632206471839
4.8905784339315	0.81632209319381
4.8850001303569	0.81632212185773
4.8794345377604	0.81632215070665
4.8738816127459	0.81632217973701
4.8683413121143	0.81632220894523
4.8628135928629	0.81632223832773
4.8572984121841	0.81632226788086
4.8517957274640	0.81632229760100
4.8463054962819	0.81632232748446
4.8408276764088	0.81632235752754
4.8353622258065	0.81632238772654
