#Parameters = {thARC=0; nARC=2.25; thsub=1; p=1; nSub=2.5}
#"Wavelength / um"	"T (355) [Real Part]"
#---------------------------------------
14.989622900000	0.81632663970925
14.937342202292	0.81632659083763
14.885424925521	0.81632654345360
14.833867293419	0.81632649753800
14.782665581854	0.81632645307176
14.731816117936	0.81632641003591
14.681315279138	0.81632636841154
14.631159492435	0.81632632817989
14.581345233463	0.81632628932224
14.531869025691	0.81632625181999
14.482727439614	0.81632621565464
14.433917091960	0.81632618080777
14.385434644914	0.81632614726105
14.337276805356	0.81632611499627
14.289440324118	0.81632608399530
14.241921995249	0.81632605424009
14.194718655303	0.81632602571272
14.147827182633	0.81632599839535
14.101244496707	0.81632597227022
14.054967557431	0.81632594731970
14.008993364486	0.81632592352624
13.963318956684	0.81632590087238
13.917941411328	0.81632587934076
13.872857843591	0.81632585891415
13.828065405904	0.81632583957537
13.783561287356	0.81632582130737
13.739342713107	0.81632580409320
13.695406943810	0.81632578791598
13.651751275046	0.81632577275897
13.608373036768	0.81632575860550
13.565269592760	0.81632574543900
13.522438340099	0.81632573324302
13.479876708633	0.81632572200120
13.437582160466	0.81632571169728
13.395552189455	0.81632570231510
13.353784320713	0.81632569383859
13.312276110124	0.81632568625181
13.271025143869	0.81632567953889
13.230029037952	0.81632567368408
13.189285437747	0.81632566867173
13.148792017544	0.81632566448629
13.108546480105	0.81632566111230
13.068546556234	0.81632565853442
13.028790004346	0.81632565673741
12.989274610052	0.81632565570611
12.949998185745	0.81632565542550
12.910958570198	0.81632565588063
12.872153628167	0.81632565705667
12.833581250000	0.81632565893888
12.795239351259	0.81632566151264
12.757125872340	0.81632566476342
12.719238778108	0.81632566867680
12.681576057530	0.81632567323846
12.644135723323	0.81632567843417
12.606915811606	0.81632568424984
12.569914381551	0.81632569067144
12.533129515050	0.81632569768508
12.496559316382	0.81632570527695
12.460201911887	0.81632571343335
12.424055449648	0.81632572214069
12.388118099174	0.81632573138547
12.352388051092	0.81632574115432
12.316863516845	0.81632575143394
12.281542728390	0.81632576221116
12.246423937908	0.81632577347291
12.211505417515	0.81632578520620
12.176785458976	0.81632579739818
12.142262373431	0.81632581003608
12.107934491115	0.81632582310725
12.073800161095	0.81632583659912
12.039857751004	0.81632585049925
12.006105646776	0.81632586479529
11.972542252396	0.81632587947500
11.939165989646	0.81632589452623
11.905975297855	0.81632590993696
11.872968633663	0.81632592569525
11.840144470774	0.81632594178927
11.807501299724	0.81632595820731
11.775037627651	0.81632597493774
11.742751978065	0.81632599196905
11.710642890625	0.81632600928982
11.678708920919	0.81632602688875
11.646948640249	0.81632604475463
11.615360635413	0.81632606287637
11.583943508501	0.81632608124296
11.552695876686	0.81632609984351
11.521616372022	0.81632611866724
11.490703641242	0.81632613770344
11.459956345566	0.81632615694155
11.429373160503	0.81632617637107
11.398952775665	0.81632619598163
11.368693894577	0.81632621576295
11.338595234493	0.81632623570486
11.308655526217	0.81632625579730
11.278873513920	0.81632627603028
11.249247954972	0.81632629639396
11.219777619760	0.81632631687856
11.190461291527	0.81632633747442
11.161297766195	0.81632635817198
11.132285852209	0.81632637896180
11.103424370370	0.81632639983450
11.074712153676	0.81632642078084
11.046148047163	0.81632644179167
11.017730907755	0.81632646285793
10.989459604106	0.81632648397067
10.961333016453	0.81632650512105
10.933350036470	0.81632652630031
10.905509567115	0.81632654749981
10.877810522496	0.81632656871099
10.850251827723	0.81632658992541
10.822832418773	0.81632661113473
10.795551242348	0.81632663233069
10.768407255747	0.81632665350515
10.741399426729	0.81632667465005
10.714526733381	0.81632669575744
10.687788163993	0.81632671681949
10.661182716927	0.81632673782842
10.634709400497	0.81632675877659
10.608367232838	0.81632677965644
10.582155241793	0.81632680046052
10.556072464789	0.81632682118146
10.530117948718	0.81632684181200
10.504290749825	0.81632686234498
10.478589933590	0.81632688277333
10.453014574616	0.81632690309008
10.427563756522	0.81632692328835
10.402236571825	0.81632694336137
10.377032121841	0.81632696330244
10.351949516575	0.81632698310500
10.326987874612	0.81632700276254
10.302146323024	0.81632702226867
10.277423997257	0.81632704161709
10.252820041040	0.81632706080159
10.228333606278	0.81632707981607
10.203963852961	0.81632709865450
10.179709949066	0.81632711731096
10.155571070461	0.81632713577963
10.131546400811	0.81632715405476
10.107635131490	0.81632717213071
10.083836461487	0.81632719000193
10.060149597315	0.81632720766297
10.036573752929	0.81632722510845
10.013108149633	0.81632724233310
9.9897520159947	0.81632725933174
9.9665045877660	0.81632727609927
9.9433651077944	0.81632729263070
9.9203328259431	0.81632730892111
9.8974069990096	0.81632732496568
9.8745868906456	0.81632734075968
9.8518717712783	0.81632735629848
9.8292609180328	0.81632737157750
9.8067536146549	0.81632738659230
9.7843491514360	0.81632740133850
9.7620468251384	0.81632741581181
9.7398459389214	0.81632743000802
9.7177458022690	0.81632744392304
9.6957457309185	0.81632745755283
9.6738450467893	0.81632747089345
9.6520430779137	0.81632748394105
9.6303391583681	0.81632749669187
9.6087326282051	0.81632750914222
9.5872228333866	0.81632752128852
9.5658091257179	0.81632753312724
9.5444908627826	0.81632754465496
9.5232674078780	0.81632755586834
9.5021381299525	0.81632756676412
9.4811024035421	0.81632757733913
9.4601596087094	0.81632758759027
9.4393091309824	0.81632759751453
9.4185503612944	0.81632760710899
9.3978826959248	0.81632761637080
9.3773055364404	0.81632762529719
9.3568182896380	0.81632763388547
9.3364203674868	0.81632764213306
9.3161111870727	0.81632765003741
9.2958901705426	0.81632765759610
9.2757567450495	0.81632766480675
9.2557103426984	0.81632767166707
9.2357504004929	0.81632767817487
9.2158763602828	0.81632768432801
9.1960876687117	0.81632769012444
9.1763837771656	0.81632769556218
9.1567641417227	0.81632770063935
9.1372282231027	0.81632770535411
9.1177754866180	0.81632770970472
9.0984054021244	0.81632771368951
9.0791174439733	0.81632771730689
9.0599110909640	0.81632772055533
9.0407858262967	0.81632772343339
9.0217411375263	0.81632772593970
9.0027765165165	0.81632772807296
8.9838914593947	0.81632772983193
8.9650854665072	0.81632773121548
8.9463580423754	0.81632773222251
8.9277086956522	0.81632773285201
8.9091369390788	0.81632773310305
8.8906422894425	0.81632773297475
8.8722242675348	0.81632773246632
8.8538823981099	0.81632773157702
8.8356162098438	0.81632773030621
8.8174252352941	0.81632772865327
8.7993090108600	0.81632772661770
8.7812670767428	0.81632772419904
8.7632989769073	0.81632772139689
8.7454042590432	0.81632771821094
8.7275824745269	0.81632771464093
8.7098331783847	0.81632771068668
8.6921559292549	0.81632770634806
8.6745502893519	0.81632770162501
8.6570158244297	0.81632769651753
8.6395521037464	0.81632769102570
8.6221587000288	0.81632768514966
8.6048351894374	0.81632767888959
8.5875811515325	0.81632767224576
8.5703961692396	0.81632766521849
8.5532798288160	0.81632765780816
8.5362317198178	0.81632765001522
8.5192514350668	0.81632764184016
8.5023385706183	0.81632763328356
8.4854927257288	0.81632762434604
8.4687135028249	0.81632761502829
8.4520005074711	0.81632760533104
8.4353533483399	0.81632759525509
8.4187716371806	0.81632758480131
8.4022549887892	0.81632757397061
8.3858030209790	0.81632756276396
8.3694153545505	0.81632755118239
8.3530916132627	0.81632753922699
8.3368314238042	0.81632752689888
8.3206344157646	0.81632751419928
8.3045002216066	0.81632750112942
8.2884284766381	0.81632748769061
8.2724188189845	0.81632747388419
8.2564708895621	0.81632745971159
8.2405843320506	0.81632744517426
8.2247587928669	0.81632743027370
8.2089939211391	0.81632741501149
8.1932893686800	0.81632739938924
8.1776447899618	0.81632738340861
8.1620598420909	0.81632736707130
8.1465341847826	0.81632735037910
8.1310674803363	0.81632733333379
8.1156593936113	0.81632731593726
8.1003095920022	0.81632729819139
8.0850177454153	0.81632728009815
8.0697835262450	0.81632726165953
8.0546066093498	0.81632724287758
8.0394866720300	0.81632722375439
8.0244233940043	0.81632720429211
8.0094164573871	0.81632718449290
7.9944655466667	0.81632716435900
7.9795703486825	0.81632714389267
7.9647305526036	0.81632712309623
7.9499458499072	0.81632710197202
7.9352159343568	0.81632708052246
7.9205405019815	0.81632705874996
7.9059192510549	0.81632703665702
7.8913518820742	0.81632701424614
7.8768380977404	0.81632699151990
7.8623776029373	0.81632696848088
7.8479701047120	0.81632694513172
7.8336153122550	0.81632692147510
7.8193129368805	0.81632689751373
7.8050626920073	0.81632687325037
7.7908642931393	0.81632684868779
7.7767174578470	0.81632682382882
7.7626219057483	0.81632679867631
7.7485773584906	0.81632677323318
7.7345835397317	0.81632674750233
7.7206401751223	0.81632672148674
7.7067469922879	0.81632669518940
7.6929037208109	0.81632666861333
7.6791100922131	0.81632664176161
7.6653658399386	0.81632661463733
7.6516706993364	0.81632658724361
7.6380244076433	0.81632655958360
7.6244267039674	0.81632653166050
7.6108773292714	0.81632650347753
7.5973760263558	0.81632647503792
7.5839225398432	0.81632644634496
7.5705166161616	0.81632641740195
7.5571580035291	0.81632638821222
7.5438464519376	0.81632635877914
7.5305817131374	0.81632632910608
7.5173635406219	0.81632629919646
7.5041916896120	0.81632626905372
7.4910659170415	0.81632623868132
7.4779859815415	0.81632620808276
7.4649516434263	0.81632617726154
7.4519626646781	0.81632614622120
7.4390188089330	0.81632611496531
7.4261198414664	0.81632608349745
7.4132655291790	0.81632605182121
7.4004556405826	0.81632601994024
7.3876899457861	0.81632598785817
7.3749682164822	0.81632595557868
7.3622902259332	0.81632592310546
7.3496557489581	0.81632589044221
7.3370645619187	0.81632585759267
7.3245164427071	0.81632582456058
7.3120111707317	0.81632579134971
7.2995485269053	0.81632575796384
7.2871282936315	0.81632572440678
7.2747502547925	0.81632569068233
7.2624141957364	0.81632565679433
7.2501199032648	0.81632562274664
7.2378671656205	0.81632558854311
7.2256557724753	0.81632555418763
7.2134855149182	0.81632551968409
7.2013561854432	0.81632548503640
7.1892675779376	0.81632545024847
7.1772194876706	0.81632541532424
7.1652117112811	0.81632538026766
7.1532440467669	0.81632534508268
7.1413162934731	0.81632530977327
7.1294282520809	0.81632527434341
7.1175797245964	0.81632523879709
7.1057705143399	0.81632520313831
7.0940004259347	0.81632516737108
7.0822692652965	0.81632513149941
7.0705768396226	0.81632509552734
7.0589229573817	0.81632505945889
7.0473074283028	0.81632502329810
7.0357300633654	0.81632498704903
7.0241906747891	0.81632495071573
7.0126890760234	0.81632491430226
7.0012250817375	0.81632487781269
6.9897985078107	0.81632484125107
6.9784091713222	0.81632480462150
6.9670568905415	0.81632476792805
6.9557414849188	0.81632473117481
6.9444627750753	0.81632469436585
6.9332205827937	0.81632465750527
6.9220147310090	0.81632462059717
6.9108450437990	0.81632458364562
6.8997113463751	0.81632454665473
6.8886134650735	0.81632450962859
6.8775512273457	0.81632447257130
6.8665244617499	0.81632443548695
6.8555329979419	0.81632439837963
6.8445766666667	0.81632436125345
6.8336552997493	0.81632432411248
6.8227687300865	0.81632428696083
6.8119167916383	0.81632424980257
6.8010993194192	0.81632421264180
6.7903161494904	0.81632417548260
6.7795671189507	0.81632413832903
6.7688520659291	0.81632410118519
6.7581708295762	0.81632406405513
6.7475232500563	0.81632402694291
6.7369091685393	0.81632398985261
6.7263284271932	0.81632395278827
6.7157808691756	0.81632391575394
6.7052663386267	0.81632387875365
6.6947846806610	0.81632384179144
6.6843357413601	0.81632380487134
6.6739193677649	0.81632376799735
6.6635354078684	0.81632373117350
6.6531837106081	0.81632369440377
6.6428641258586	0.81632365769217
6.6325765044248	0.81632362104266
6.6223206980340	0.81632358445922
6.6120965593295	0.81632354794581
6.6019039418630	0.81632351150638
6.5917427000879	0.81632347514487
6.5816126893524	0.81632343886519
6.5715137658922	0.81632340267127
6.5614457868243	0.81632336656700
6.5514086101399	0.81632333055628
6.5414020946978	0.81632329464297
6.5314261002179	0.81632325883094
6.5214804872743	0.81632322312404
6.5115651172893	0.81632318752609
6.5016798525266	0.81632315204092
6.4918245560849	0.81632311667232
6.4819990918919	0.81632308142408
6.4722033246978	0.81632304629998
6.4624371200690	0.81632301130376
6.4527003443823	0.81632297643916
6.4429928648184	0.81632294170991
6.4333145493562	0.81632290711969
6.4236652667667	0.81632287267221
6.4140448866068	0.81632283837112
6.4044532792138	0.81632280422007
6.3948903156997	0.81632277022268
6.3853558679446	0.81632273638258
6.3758498085921	0.81632270270333
6.3663720110427	0.81632266918853
6.3569223494487	0.81632263584170
6.3475006987084	0.81632260266639
6.3381069344609	0.81632256966609
6.3287409330800	0.81632253684429
6.3194025716695	0.81632250420446
6.3100917280572	0.81632247175003
6.3008082807902	0.81632243948442
6.2915521091291	0.81632240741103
6.2823230930427	0.81632237553324
6.2731211132036	0.81632234385438
6.2639460509820	0.81632231237778
6.2547977884415	0.81632228110676
6.2456762083333	0.81632225004457
6.2365811940919	0.81632221919448
6.2275126298297	0.81632218855970
6.2184704003319	0.81632215814345
6.2094543910522	0.81632212794889
6.2004644881075	0.81632209797918
6.1915005782734	0.81632206823743
6.1825625489792	0.81632203872675
6.1736502883031	0.81632200945021
6.1647636849681	0.81632198041084
6.1559026283368	0.81632195161166
6.1470670084068	0.81632192305566
6.1382567158067	0.81632189474580
6.1294716417910	0.81632186668500
6.1207116782360	0.81632183887618
6.1119767176351	0.81632181132220
6.1032666530945	0.81632178402590
6.0945813783289	0.81632175699010
6.0859207876573	0.81632173021759
6.0772847759984	0.81632170371112
6.0686732388664	0.81632167747342
6.0600860723671	0.81632165150717
6.0515231731934	0.81632162581504
6.0429844386212	0.81632160039967
6.0344697665056	0.81632157526365
6.0259790552764	0.81632155040955
6.0175122039342	0.81632152583992
6.0090691120465	0.81632150155725
6.0006496797438	0.81632147756402
5.9922538077154	0.81632145386268
5.9838813972056	0.81632143045562
5.9755323500100	0.81632140734522
5.9672065684713	0.81632138453384
5.9589039554760	0.81632136202377
5.9506244144502	0.81632133981728
5.9423678493558	0.81632131791663
5.9341341646873	0.81632129632402
5.9259232654675	0.81632127504162
5.9177350572444	0.81632125407158
5.9095694460871	0.81632123341598
5.9014263385827	0.81632121307691
5.8933056418321	0.81632119305640
5.8852072634472	0.81632117335645
5.8771311115468	0.81632115397901
5.8690770947533	0.81632113492602
5.8610451221896	0.81632111619938
5.8530351034752	0.81632109780093
5.8450469487229	0.81632107973249
5.8370805685358	0.81632106199586
5.8291358740035	0.81632104459278
5.8212127766990	0.81632102752495
5.8133111886756	0.81632101079405
5.8054310224632	0.81632099440172
5.7975721910656	0.81632097834956
5.7897346079567	0.81632096263914
5.7819181870781	0.81632094727196
5.7741228428351	0.81632093224953
5.7663484900942	0.81632091757329
5.7585950441798	0.81632090324466
5.7508624208709	0.81632088926500
5.7431505363985	0.81632087563566
5.7354593074421	0.81632086235793
5.7277886511272	0.81632084943306
5.7201384850219	0.81632083686229
5.7125087271341	0.81632082464679
5.7048992959087	0.81632081278771
5.6973101102242	0.81632080128614
5.6897410893908	0.81632079014316
5.6821921531463	0.81632077935978
5.6746632216544	0.81632076893701
5.6671542155009	0.81632075887578
5.6596650556919	0.81632074917700
5.6521956636501	0.81632073984155
5.6447459612126	0.81632073087025
5.6373158706281	0.81632072226388
5.6299053145540	0.81632071402321
5.6225142160540	0.81632070614894
5.6151424985952	0.81632069864174
5.6077900860456	0.81632069150224
5.6004569026714	0.81632068473103
5.5931428731343	0.81632067832866
5.5858479224893	0.81632067229565
5.5785719761816	0.81632066663245
5.5713149600446	0.81632066133950
5.5640768002970	0.81632065641720
5.5568574235403	0.81632065186588
5.5496567567568	0.81632064768585
5.5424747273063	0.81632064387740
5.5353112629247	0.81632064044073
5.5281662917204	0.81632063737604
5.5210397421731	0.81632063468347
5.5139315431304	0.81632063236314
5.5068416238060	0.81632063041510
5.4997699137773	0.81632062883938
5.4927163429828	0.81632062763596
5.4856808417200	0.81632062680479
5.4786633406433	0.81632062634577
5.4716637707611	0.81632062625876
5.4646820634342	0.81632062654359
5.4577181503732	0.81632062720002
5.4507719636364	0.81632062822781
5.4438434356274	0.81632062962665
5.4369324990932	0.81632063139620
5.4300390871219	0.81632063353608
5.4231631331404	0.81632063604586
5.4163045709124	0.81632063892508
5.4094633345363	0.81632064217325
5.4026393584430	0.81632064578980
5.3958325773938	0.81632064977417
5.3890429264785	0.81632065412572
5.3822703411131	0.81632065884378
5.3755147570378	0.81632066392766
5.3687761103152	0.81632066937660
5.3620543373278	0.81632067518982
5.3553493747767	0.81632068136649
5.3486611596789	0.81632068790574
5.3419896293656	0.81632069480667
5.3353347214807	0.81632070206832
5.3286963739780	0.81632070968972
5.3220745251198	0.81632071766982
5.3154691134752	0.81632072600758
5.3088800779175	0.81632073470187
5.3023073576229	0.81632074375156
5.2957508920685	0.81632075315545
5.2892106210303	0.81632076291232
5.2826864845815	0.81632077302090
5.2761784230905	0.81632078347989
5.2696863772192	0.81632079428795
5.2632102879213	0.81632080544370
5.2567500964405	0.81632081694570
5.2503057443082	0.81632082879250
5.2438771733427	0.81632084098260
5.2374643256464	0.81632085351447
5.2310671436050	0.81632086638652
5.2246855698850	0.81632087959713
5.2183195474326	0.81632089314467
5.2119690194715	0.81632090702742
5.2056339295016	0.81632092124367
5.1993142212973	0.81632093579164
5.1930098389052	0.81632095066954
5.1867207266436	0.81632096587550
5.1804468290997	0.81632098140766
5.1741880911288	0.81632099726410
5.1679444578521	0.81632101344286
5.1617158746556	0.81632102994195
5.1555022871883	0.81632104675933
5.1493036413604	0.81632106389295
5.1431198833419	0.81632108134070
5.1369509595613	0.81632109910044
5.1307968167037	0.81632111716999
5.1246574017094	0.81632113554715
5.1185326617722	0.81632115422966
5.1124225443383	0.81632117321525
5.1063269971044	0.81632119250159
5.1002459680163	0.81632121208633
5.0941794052676	0.81632123196709
5.0881272572980	0.81632125214143
5.0820894727920	0.81632127260690
5.0760660006773	0.81632129336102
5.0700567901235	0.81632131440124
5.0640617905405	0.81632133572500
5.0580809515775	0.81632135732973
5.0521142231210	0.81632137921277
5.0461615552937	0.81632140137148
5.0402228984533	0.81632142380315
5.0342982031906	0.81632144650506
5.0283874203287	0.81632146947444
5.0224905009214	0.81632149270851
5.0166073962517	0.81632151620443
5.0107380578305	0.81632153995934
5.0048824373957	0.81632156397037
4.9990404869101	0.81632158823457
4.9932121585610	0.81632161274901
4.9873974047579	0.81632163751069
4.9815961781323	0.81632166251661
4.9758084315353	0.81632168776371
4.9700341180371	0.81632171324892
4.9642731909256	0.81632173896913
4.9585256037049	0.81632176492121
4.9527913100942	0.81632179110199
4.9470702640264	0.81632181750828
4.9413624196473	0.81632184413685
4.9356677313138	0.81632187098445
4.9299861535932	0.81632189804780
4.9243176412615	0.81632192532359
4.9186621493027	0.81632195280848
4.9130196329072	0.81632198049911
4.9073900474709	0.81632200839208
4.9017733485939	0.81632203648399
4.8961694920790	0.81632206477137
4.8905784339315	0.81632209325076
4.8850001303569	0.81632212191867
4.8794345377604	0.81632215077156
4.8738816127459	0.81632217980589
4.8683413121143	0.81632220901808
4.8628135928629	0.81632223840453
4.8572984121841	0.81632226796163
4.8517957274640	0.81632229768572
4.8463054962819	0.81632232757312
4.8408276764088	0.81632235762016
4.8353622258065	0.81632238782309
