#Parameters = {thARC=0.2; nARC=2.5; thsub=1; p=1; nSub=2.5}
#"Wavelength / um"	"T (362) [Real Part]"
#---------------------------------------
14.989622900000	0.81632673936181
14.937342202292	0.81632858829160
14.885424925521	0.81633036589684
14.833867293419	0.81633207366219
14.782665581854	0.81633371305340
14.731816117936	0.81633528551742
14.681315279138	0.81633679248255
14.631159492435	0.81633823535853
14.581345233463	0.81633961553669
14.531869025691	0.81634093439008
14.482727439614	0.81634219327358
14.433917091960	0.81634339352403
14.385434644914	0.81634453646036
14.337276805356	0.81634562338371
14.289440324118	0.81634665557759
14.241921995249	0.81634763430793
14.194718655303	0.81634856082331
14.147827182633	0.81634943635498
14.101244496707	0.81635026211707
14.054967557431	0.81635103930668
14.008993364486	0.81635176910400
13.963318956684	0.81635245267248
13.917941411328	0.81635309115888
13.872857843591	0.81635368569348
13.828065405904	0.81635423739015
13.783561287356	0.81635474734651
13.739342713107	0.81635521664404
13.695406943810	0.81635564634821
13.651751275046	0.81635603750859
13.608373036768	0.81635639115903
13.565269592760	0.81635670831771
13.522438340099	0.81635698998735
13.479876708633	0.81635723715525
13.437582160466	0.81635745079350
13.395552189455	0.81635763185903
13.353784320713	0.81635778129381
13.312276110124	0.81635790002492
13.271025143869	0.81635798896469
13.230029037952	0.81635804901084
13.189285437747	0.81635808104659
13.148792017544	0.81635808594080
13.108546480105	0.81635806454808
13.068546556234	0.81635801770894
13.028790004346	0.81635794624988
12.989274610052	0.81635785098354
12.949998185745	0.81635773270880
12.910958570198	0.81635759221096
12.872153628167	0.81635743026179
12.833581250000	0.81635724761972
12.795239351259	0.81635704502990
12.757125872340	0.81635682322438
12.719238778108	0.81635658292222
12.681576057530	0.81635632482958
12.644135723323	0.81635604963988
12.606915811606	0.81635575803392
12.569914381551	0.81635545067996
12.533129515050	0.81635512823390
12.496559316382	0.81635479133937
12.460201911887	0.81635444062785
12.424055449648	0.81635407671881
12.388118099174	0.81635370021980
12.352388051092	0.81635331172660
12.316863516845	0.81635291182333
12.281542728390	0.81635250108258
12.246423937908	0.81635208006548
12.211505417515	0.81635164932190
12.176785458976	0.81635120939049
12.142262373431	0.81635076079887
12.107934491115	0.81635030406369
12.073800161095	0.81634983969077
12.039857751004	0.81634936817521
12.006105646776	0.81634889000154
11.972542252396	0.81634840564379
11.939165989646	0.81634791556563
11.905975297855	0.81634742022049
11.872968633663	0.81634692005164
11.840144470774	0.81634641549238
11.807501299724	0.81634590696605
11.775037627651	0.81634539488625
11.742751978065	0.81634487965688
11.710642890625	0.81634436167228
11.678708920919	0.81634384131733
11.646948640249	0.81634331896758
11.615360635413	0.81634279498938
11.583943508501	0.81634226973991
11.552695876686	0.81634174356739
11.521616372022	0.81634121681114
11.490703641242	0.81634068980167
11.459956345566	0.81634016286084
11.429373160503	0.81633963630193
11.398952775665	0.81633911042978
11.368693894577	0.81633858554087
11.338595234493	0.81633806192343
11.308655526217	0.81633753985757
11.278873513920	0.81633701961535
11.249247954972	0.81633650146093
11.219777619760	0.81633598565065
11.190461291527	0.81633547243311
11.161297766195	0.81633496204934
11.132285852209	0.81633445473283
11.103424370370	0.81633395070969
11.074712153676	0.81633345019874
11.046148047163	0.81633295341157
11.017730907755	0.81633246055270
10.989459604106	0.81633197181965
10.961333016453	0.81633148740305
10.933350036470	0.81633100748673
10.905509567115	0.81633053224784
10.877810522496	0.81633006185690
10.850251827723	0.81632959647797
10.822832418773	0.81632913626870
10.795551242348	0.81632868138043
10.768407255747	0.81632823195830
10.741399426729	0.81632778814133
10.714526733381	0.81632735006255
10.687788163993	0.81632691784904
10.661182716927	0.81632649162208
10.634709400497	0.81632607149719
10.608367232838	0.81632565758429
10.582155241793	0.81632524998772
10.556072464789	0.81632484880637
10.530117948718	0.81632445413379
10.504290749825	0.81632406605822
10.478589933590	0.81632368466275
10.453014574616	0.81632331002536
10.427563756522	0.81632294221903
10.402236571825	0.81632258131182
10.377032121841	0.81632222736696
10.351949516575	0.81632188044294
10.326987874612	0.81632154059360
10.302146323024	0.81632120786820
10.277423997257	0.81632088231151
10.252820041040	0.81632056396391
10.228333606278	0.81632025286147
10.203963852961	0.81631994903600
10.179709949066	0.81631965251519
10.155571070461	0.81631936332263
10.131546400811	0.81631908147794
10.107635131490	0.81631880699683
10.083836461487	0.81631853989117
10.060149597315	0.81631828016911
10.036573752929	0.81631802783509
10.013108149633	0.81631778289000
9.9897520159947	0.81631754533117
9.9665045877660	0.81631731515254
9.9433651077944	0.81631709234464
9.9203328259431	0.81631687689477
9.8974069990096	0.81631666878696
9.8745868906456	0.81631646800213
9.8518717712783	0.81631627451816
9.8292609180328	0.81631608830989
9.8067536146549	0.81631590934928
9.7843491514360	0.81631573760542
9.7620468251384	0.81631557304464
9.7398459389214	0.81631541563055
9.7177458022690	0.81631526532413
9.6957457309185	0.81631512208379
9.6738450467893	0.81631498586545
9.6520430779137	0.81631485662258
9.6303391583681	0.81631473430631
9.6087326282051	0.81631461886545
9.5872228333866	0.81631451024658
9.5658091257179	0.81631440839412
9.5444908627826	0.81631431325039
9.5232674078780	0.81631422475565
9.5021381299525	0.81631414284821
9.4811024035421	0.81631406746445
9.4601596087094	0.81631399853889
9.4393091309824	0.81631393600428
9.4185503612944	0.81631387979161
9.3978826959248	0.81631382983023
9.3773055364404	0.81631378604787
9.3568182896380	0.81631374837067
9.3364203674868	0.81631371672333
9.3161111870727	0.81631369102907
9.2958901705426	0.81631367120975
9.2757567450495	0.81631365718589
9.2557103426984	0.81631364887674
9.2357504004929	0.81631364620033
9.2158763602828	0.81631364907355
9.1960876687117	0.81631365741215
9.1763837771656	0.81631367113085
9.1567641417227	0.81631369014333
9.1372282231027	0.81631371436235
9.1177754866180	0.81631374369975
9.0984054021244	0.81631377806652
9.0791174439733	0.81631381737284
9.0599110909640	0.81631386152815
9.0407858262967	0.81631391044116
9.0217411375263	0.81631396401995
9.0027765165165	0.81631402217196
8.9838914593947	0.81631408480408
8.9650854665072	0.81631415182266
8.9463580423754	0.81631422313360
8.9277086956522	0.81631429864235
8.9091369390788	0.81631437825396
8.8906422894425	0.81631446187318
8.8722242675348	0.81631454940440
8.8538823981099	0.81631464075178
8.8356162098438	0.81631473581927
8.8174252352941	0.81631483451062
8.7993090108600	0.81631493672944
8.7812670767428	0.81631504237925
8.7632989769073	0.81631515136350
8.7454042590432	0.81631526358563
8.7275824745269	0.81631537894907
8.7098331783847	0.81631549735733
8.6921559292549	0.81631561871398
8.6745502893519	0.81631574292272
8.6570158244297	0.81631586988742
8.6395521037464	0.81631599951214
8.6221587000288	0.81631613170114
8.6048351894374	0.81631626635896
8.5875811515325	0.81631640339044
8.5703961692396	0.81631654270072
8.5532798288160	0.81631668419532
8.5362317198178	0.81631682778011
8.5192514350668	0.81631697336142
8.5023385706183	0.81631712084599
8.4854927257288	0.81631727014106
8.4687135028249	0.81631742115435
8.4520005074711	0.81631757379412
8.4353533483399	0.81631772796920
8.4187716371806	0.81631788358900
8.4022549887892	0.81631804056352
8.3858030209790	0.81631819880343
8.3694153545505	0.81631835822004
8.3530916132627	0.81631851872536
8.3368314238042	0.81631868023210
8.3206344157646	0.81631884265371
8.3045002216066	0.81631900590439
8.2884284766381	0.81631916989914
8.2724188189845	0.81631933455373
8.2564708895621	0.81631949978477
8.2405843320506	0.81631966550972
8.2247587928669	0.81631983164690
8.2089939211391	0.81631999811549
8.1932893686800	0.81632016483561
8.1776447899618	0.81632033172826
8.1620598420909	0.81632049871542
8.1465341847826	0.81632066571999
8.1310674803363	0.81632083266587
8.1156593936113	0.81632099947793
8.1003095920022	0.81632116608206
8.0850177454153	0.81632133240516
8.0697835262450	0.81632149837518
8.0546066093498	0.81632166392111
8.0394866720300	0.81632182897300
8.0244233940043	0.81632199346198
8.0094164573871	0.81632215732030
7.9944655466667	0.81632232048127
7.9795703486825	0.81632248287934
7.9647305526036	0.81632264445009
7.9499458499072	0.81632280513022
7.9352159343568	0.81632296485760
7.9205405019815	0.81632312357124
7.9059192510549	0.81632328121134
7.8913518820742	0.81632343771925
7.8768380977404	0.81632359303754
7.8623776029373	0.81632374710995
7.8479701047120	0.81632389988143
7.8336153122550	0.81632405129813
7.8193129368805	0.81632420130745
7.8050626920073	0.81632434985798
7.7908642931393	0.81632449689954
7.7767174578470	0.81632464238322
7.7626219057483	0.81632478626131
7.7485773584906	0.81632492848737
7.7345835397317	0.81632506901620
7.7206401751223	0.81632520780386
7.7067469922879	0.81632534480765
7.6929037208109	0.81632547998617
7.6791100922131	0.81632561329923
7.6653658399386	0.81632574470794
7.6516706993364	0.81632587417469
7.6380244076433	0.81632600166309
7.6244267039674	0.81632612713806
7.6108773292714	0.81632625056579
7.5973760263558	0.81632637191372
7.5839225398432	0.81632649115057
7.5705166161616	0.81632660824634
7.5571580035291	0.81632672317229
7.5438464519376	0.81632683590096
7.5305817131374	0.81632694640614
7.5173635406219	0.81632705466289
7.5041916896120	0.81632716064755
7.4910659170415	0.81632726433771
7.4779859815415	0.81632736571221
7.4649516434263	0.81632746475116
7.4519626646781	0.81632756143591
7.4390188089330	0.81632765574907
7.4261198414664	0.81632774767447
7.4132655291790	0.81632783719721
7.4004556405826	0.81632792430359
7.3876899457861	0.81632800898117
7.3749682164822	0.81632809121872
7.3622902259332	0.81632817100622
7.3496557489581	0.81632824833487
7.3370645619187	0.81632832319707
7.3245164427071	0.81632839558644
7.3120111707317	0.81632846549775
7.2995485269053	0.81632853292698
7.2871282936315	0.81632859787130
7.2747502547925	0.81632866032902
7.2624141957364	0.81632872029963
7.2501199032648	0.81632877778375
7.2378671656205	0.81632883278318
7.2256557724753	0.81632888530081
7.2134855149182	0.81632893534070
7.2013561854432	0.81632898290800
7.1892675779376	0.81632902800897
7.1772194876706	0.81632907065096
7.1652117112811	0.81632911084242
7.1532440467669	0.81632914859288
7.1413162934731	0.81632918391292
7.1294282520809	0.81632921681418
7.1175797245964	0.81632924730935
7.1057705143399	0.81632927541214
7.0940004259347	0.81632930113729
7.0822692652965	0.81632932450056
7.0705768396226	0.81632934551868
7.0589229573817	0.81632936420938
7.0473074283028	0.81632938059138
7.0357300633654	0.81632939468433
7.0241906747891	0.81632940650884
7.0126890760234	0.81632941608647
7.0012250817375	0.81632942343968
6.9897985078107	0.81632942859184
6.9784091713222	0.81632943156724
6.9670568905415	0.81632943239102
6.9557414849188	0.81632943108922
6.9444627750753	0.81632942768869
6.9332205827937	0.81632942221718
6.9220147310090	0.81632941470320
6.9108450437990	0.81632940517613
6.8997113463751	0.81632939366611
6.8886134650735	0.81632938020408
6.8775512273457	0.81632936482174
6.8665244617499	0.81632934755154
6.8555329979419	0.81632932842669
6.8445766666667	0.81632930748109
6.8336552997493	0.81632928474937
6.8227687300865	0.81632926026686
6.8119167916383	0.81632923406953
6.8010993194192	0.81632920619405
6.7903161494904	0.81632917667771
6.7795671189507	0.81632914555845
6.7688520659291	0.81632911287482
6.7581708295762	0.81632907866594
6.7475232500563	0.81632904297156
6.7369091685393	0.81632900583196
6.7263284271932	0.81632896728798
6.7157808691756	0.81632892738099
6.7052663386267	0.81632888615289
6.6947846806610	0.81632884364607
6.6843357413601	0.81632879990340
6.6739193677649	0.81632875496824
6.6635354078684	0.81632870888437
6.6531837106081	0.81632866169602
6.6428641258586	0.81632861344786
6.6325765044248	0.81632856418492
6.6223206980340	0.81632851395264
6.6120965593295	0.81632846279682
6.6019039418630	0.81632841076363
6.5917427000879	0.81632835789954
6.5816126893524	0.81632830425137
6.5715137658922	0.81632824986621
6.5614457868243	0.81632819479147
6.5514086101399	0.81632813907479
6.5414020946978	0.81632808276409
6.5314261002179	0.81632802590751
6.5214804872743	0.81632796855340
6.5115651172893	0.81632791075031
6.5016798525266	0.81632785254700
6.4918245560849	0.81632779399235
6.4819990918919	0.81632773513543
6.4722033246978	0.81632767602542
6.4624371200690	0.81632761671162
6.4527003443823	0.81632755724342
6.4429928648184	0.81632749767032
6.4333145493562	0.81632743804184
6.4236652667667	0.81632737840759
6.4140448866068	0.81632731881719
6.4044532792138	0.81632725932027
6.3948903156997	0.81632719996649
6.3853558679446	0.81632714080544
6.3758498085921	0.81632708188673
6.3663720110427	0.81632702325989
6.3569223494487	0.81632696497437
6.3475006987084	0.81632690707957
6.3381069344609	0.81632684962476
6.3287409330800	0.81632679265912
6.3194025716695	0.81632673623168
6.3100917280572	0.81632668039132
6.3008082807902	0.81632662518678
6.2915521091291	0.81632657066659
6.2823230930427	0.81632651687910
6.2731211132036	0.81632646387245
6.2639460509820	0.81632641169455
6.2547977884415	0.81632636039307
6.2456762083333	0.81632631001541
6.2365811940919	0.81632626060873
6.2275126298297	0.81632621221986
6.2184704003319	0.81632616489535
6.2094543910522	0.81632611868143
6.2004644881075	0.81632607362401
6.1915005782734	0.81632602976862
6.1825625489792	0.81632598716045
6.1736502883031	0.81632594584432
6.1647636849681	0.81632590586465
6.1559026283368	0.81632586726545
6.1470670084068	0.81632583009030
6.1382567158067	0.81632579438239
6.1294716417910	0.81632576018441
6.1207116782360	0.81632572753863
6.1119767176351	0.81632569648683
6.1032666530945	0.81632566707029
6.0945813783289	0.81632563932981
6.0859207876573	0.81632561330566
6.0772847759984	0.81632558903760
6.0686732388664	0.81632556656484
6.0600860723671	0.81632554592603
6.0515231731934	0.81632552715926
6.0429844386212	0.81632551030206
6.0344697665056	0.81632549539134
6.0259790552764	0.81632548246344
6.0175122039342	0.81632547155406
6.0090691120465	0.81632546269829
6.0006496797438	0.81632545593057
5.9922538077154	0.81632545128471
5.9838813972056	0.81632544879385
5.9755323500100	0.81632544849047
5.9672065684713	0.81632545040635
5.9589039554760	0.81632545457259
5.9506244144502	0.81632546101958
5.9423678493558	0.81632546977702
5.9341341646873	0.81632548087387
5.9259232654675	0.81632549433836
5.9177350572444	0.81632551019797
5.9095694460871	0.81632552847944
5.9014263385827	0.81632554920874
5.8933056418321	0.81632557241109
5.8852072634472	0.81632559811091
5.8771311115468	0.81632562633184
5.8690770947533	0.81632565709672
5.8610451221896	0.81632569042759
5.8530351034752	0.81632572634568
5.8450469487229	0.81632576487140
5.8370805685358	0.81632580602431
5.8291358740035	0.81632584982317
5.8212127766990	0.81632589628587
5.8133111886756	0.81632594542947
5.8054310224632	0.81632599727014
5.7975721910656	0.81632605182323
5.7897346079567	0.81632610910319
5.7819181870781	0.81632616912361
5.7741228428351	0.81632623189718
5.7663484900942	0.81632629743571
5.7585950441798	0.81632636575013
5.7508624208709	0.81632643685046
5.7431505363985	0.81632651074580
5.7354593074421	0.81632658744437
5.7277886511272	0.81632666695347
5.7201384850219	0.81632674927946
5.7125087271341	0.81632683442780
5.7048992959087	0.81632692240302
5.6973101102242	0.81632701320871
5.6897410893908	0.81632710684754
5.6821921531463	0.81632720332122
5.6746632216544	0.81632730263056
5.6671542155009	0.81632740477539
5.6596650556919	0.81632750975461
5.6521956636501	0.81632761756617
5.6447459612126	0.81632772820708
5.6373158706281	0.81632784167337
5.6299053145540	0.81632795796014
5.6225142160540	0.81632807706154
5.6151424985952	0.81632819897074
5.6077900860456	0.81632832367998
5.6004569026714	0.81632845118051
5.5931428731343	0.81632858146265
5.5858479224893	0.81632871451576
5.5785719761816	0.81632885032821
5.5713149600446	0.81632898888744
5.5640768002970	0.81632913017994
5.5568574235403	0.81632927419120
5.5496567567568	0.81632942090580
5.5424747273063	0.81632957030734
5.5353112629247	0.81632972237847
5.5281662917204	0.81632987710087
5.5210397421731	0.81633003445531
5.5139315431304	0.81633019442158
5.5068416238060	0.81633035697853
5.4997699137773	0.81633052210406
5.4927163429828	0.81633068977515
5.4856808417200	0.81633085996781
5.4786633406433	0.81633103265715
5.4716637707611	0.81633120781732
5.4646820634342	0.81633138542155
5.4577181503732	0.81633156544216
5.4507719636364	0.81633174785054
5.4438434356274	0.81633193261717
5.4369324990932	0.81633211971159
5.4300390871219	0.81633230910249
5.4231631331404	0.81633250075760
5.4163045709124	0.81633269464381
5.4094633345363	0.81633289072707
5.4026393584430	0.81633308897249
5.3958325773938	0.81633328934426
5.3890429264785	0.81633349180574
5.3822703411131	0.81633369631940
5.3755147570378	0.81633390284685
5.3687761103152	0.81633411134886
5.3620543373278	0.81633432178535
5.3553493747767	0.81633453411541
5.3486611596789	0.81633474829729
5.3419896293656	0.81633496428843
5.3353347214807	0.81633518204543
5.3286963739780	0.81633540152413
5.3220745251198	0.81633562267954
5.3154691134752	0.81633584546588
5.3088800779175	0.81633606983661
5.3023073576229	0.81633629574442
5.2957508920685	0.81633652314121
5.2892106210303	0.81633675197817
5.2826864845815	0.81633698220572
5.2761784230905	0.81633721377355
5.2696863772192	0.81633744663064
5.2632102879213	0.81633768072526
5.2567500964405	0.81633791600498
5.2503057443082	0.81633815241665
5.2438771733427	0.81633838990650
5.2374643256464	0.81633862842003
5.2310671436050	0.81633886790214
5.2246855698850	0.81633910829703
5.2183195474326	0.81633934954832
5.2119690194715	0.81633959159898
5.2056339295016	0.81633983439138
5.1993142212973	0.81634007786729
5.1930098389052	0.81634032196789
5.1867207266436	0.81634056663380
5.1804468290997	0.81634081180509
5.1741880911288	0.81634105742126
5.1679444578521	0.81634130342131
5.1617158746556	0.81634154974369
5.1555022871883	0.81634179632636
5.1493036413604	0.81634204310680
5.1431198833419	0.81634229002200
5.1369509595613	0.81634253700848
5.1307968167037	0.81634278400233
5.1246574017094	0.81634303093919
5.1185326617722	0.81634327775430
5.1124225443383	0.81634352438248
5.1063269971044	0.81634377075815
5.1002459680163	0.81634401681539
5.0941794052676	0.81634426248788
5.0881272572980	0.81634450770899
5.0820894727920	0.81634475241174
5.0760660006773	0.81634499652885
5.0700567901235	0.81634523999274
5.0640617905405	0.81634548273554
5.0580809515775	0.81634572468912
5.0521142231210	0.81634596578512
5.0461615552937	0.81634620595491
5.0402228984533	0.81634644512968
5.0342982031906	0.81634668324040
5.0283874203287	0.81634692021786
5.0224905009214	0.81634715599270
5.0166073962517	0.81634739049539
5.0107380578305	0.81634762365629
5.0048824373957	0.81634785540562
4.9990404869101	0.81634808567353
4.9932121585610	0.81634831439007
4.9873974047579	0.81634854148524
4.9815961781323	0.81634876688899
4.9758084315353	0.81634899053124
4.9700341180371	0.81634921234191
4.9642731909256	0.81634943225093
4.9585256037049	0.81634965018825
4.9527913100942	0.81634986608387
4.9470702640264	0.81635007986785
4.9413624196473	0.81635029147033
4.9356677313138	0.81635050082156
4.9299861535932	0.81635070785189
4.9243176412615	0.81635091249183
4.9186621493027	0.81635111467203
4.9130196329072	0.81635131432332
4.9073900474709	0.81635151137672
4.9017733485939	0.81635170576346
4.8961694920790	0.81635189741500
4.8905784339315	0.81635208626306
4.8850001303569	0.81635227223961
4.8794345377604	0.81635245527693
4.8738816127459	0.81635263530757
4.8683413121143	0.81635281226445
4.8628135928629	0.81635298608080
4.8572984121841	0.81635315669022
4.8517957274640	0.81635332402670
4.8463054962819	0.81635348802462
4.8408276764088	0.81635364861880
4.8353622258065	0.81635380574447
