#Parameters = {thARC=0.4; nARC=2.5; thsub=1; p=1; nSub=2.5}
#"Wavelength / um"	"T (363) [Real Part]"
#---------------------------------------
14.989622900000	0.81632653863723
14.937342202292	0.81633854395584
14.885424925521	0.81635017555642
14.833867293419	0.81636143942016
14.782665581854	0.81637234147648
14.731816117936	0.81638288760302
14.681315279138	0.81639308362575
14.631159492435	0.81640293531897
14.581345233463	0.81641244840547
14.531869025691	0.81642162855654
14.482727439614	0.81643048139205
14.433917091960	0.81643901248057
14.385434644914	0.81644722733943
14.337276805356	0.81645513143482
14.289440324118	0.81646273018188
14.241921995249	0.81647002894479
14.194718655303	0.81647703303690
14.147827182633	0.81648374772083
14.101244496707	0.81649017820855
14.054967557431	0.81649632966153
14.008993364486	0.81650220719084
13.963318956684	0.81650781585730
13.917941411328	0.81651316067155
13.872857843591	0.81651824659423
13.828065405904	0.81652307853610
13.783561287356	0.81652766135816
13.739342713107	0.81653199987181
13.695406943810	0.81653609883898
13.651751275046	0.81653996297229
13.608373036768	0.81654359693518
13.565269592760	0.81654700534207
13.522438340099	0.81655019275854
13.479876708633	0.81655316370144
13.437582160466	0.81655592263912
13.395552189455	0.81655847399152
13.353784320713	0.81656082213039
13.312276110124	0.81656297137946
13.271025143869	0.81656492601458
13.230029037952	0.81656669026393
13.189285437747	0.81656826830818
13.148792017544	0.81656966428070
13.108546480105	0.81657088226771
13.068546556234	0.81657192630848
13.028790004346	0.81657280039554
12.989274610052	0.81657350847486
12.949998185745	0.81657405444603
12.910958570198	0.81657444216248
12.872153628167	0.81657467543169
12.833581250000	0.81657475801535
12.795239351259	0.81657469362960
12.757125872340	0.81657448594526
12.719238778108	0.81657413858797
12.681576057530	0.81657365513847
12.644135723323	0.81657303913277
12.606915811606	0.81657229406241
12.569914381551	0.81657142337463
12.533129515050	0.81657043047262
12.496559316382	0.81656931871574
12.460201911887	0.81656809141975
12.424055449648	0.81656675185701
12.388118099174	0.81656530325674
12.352388051092	0.81656374880525
12.316863516845	0.81656209164613
12.281542728390	0.81656033488054
12.246423937908	0.81655848156740
12.211505417515	0.81655653472367
12.176785458976	0.81655449732455
12.142262373431	0.81655237230373
12.107934491115	0.81655016255367
12.073800161095	0.81654787092578
12.039857751004	0.81654550023070
12.006105646776	0.81654305323858
11.972542252396	0.81654053267924
11.939165989646	0.81653794124252
11.905975297855	0.81653528157845
11.872968633663	0.81653255629755
11.840144470774	0.81652976797106
11.807501299724	0.81652691913120
11.775037627651	0.81652401227144
11.742751978065	0.81652104984673
11.710642890625	0.81651803427376
11.678708920919	0.81651496793128
11.646948640249	0.81651185316024
11.615360635413	0.81650869226419
11.583943508501	0.81650548750941
11.552695876686	0.81650224112528
11.521616372022	0.81649895530448
11.490703641242	0.81649563220327
11.459956345566	0.81649227394178
11.429373160503	0.81648888260421
11.398952775665	0.81648546023918
11.368693894577	0.81648200885995
11.338595234493	0.81647853044468
11.308655526217	0.81647502693673
11.278873513920	0.81647150024491
11.249247954972	0.81646795224374
11.219777619760	0.81646438477375
11.190461291527	0.81646079964172
11.161297766195	0.81645719862099
11.132285852209	0.81645358345168
11.103424370370	0.81644995584099
11.074712153676	0.81644631746350
11.046148047163	0.81644266996138
11.017730907755	0.81643901494472
10.989459604106	0.81643535399178
10.961333016453	0.81643168864925
10.933350036470	0.81642802043254
10.905509567115	0.81642435082608
10.877810522496	0.81642068128353
10.850251827723	0.81641701322812
10.822832418773	0.81641334805288
10.795551242348	0.81640968712092
10.768407255747	0.81640603176575
10.741399426729	0.81640238329149
10.714526733381	0.81639874297317
10.687788163993	0.81639511205704
10.661182716927	0.81639149176078
10.634709400497	0.81638788327383
10.608367232838	0.81638428775763
10.582155241793	0.81638070634591
10.556072464789	0.81637714014495
10.530117948718	0.81637359023389
10.504290749825	0.81637005766494
10.478589933590	0.81636654346373
10.453014574616	0.81636304862952
10.427563756522	0.81635957413549
10.402236571825	0.81635612092904
10.377032121841	0.81635268993203
10.351949516575	0.81634928204106
10.326987874612	0.81634589812775
10.302146323024	0.81634253903901
10.277423997257	0.81633920559729
10.252820041040	0.81633589860087
10.228333606278	0.81633261882414
10.203963852961	0.81632936701784
10.179709949066	0.81632614390934
10.155571070461	0.81632295020292
10.131546400811	0.81631978658003
10.107635131490	0.81631665369954
10.083836461487	0.81631355219803
10.060149597315	0.81631048269006
10.036573752929	0.81630744576838
10.013108149633	0.81630444200429
9.9897520159947	0.81630147194781
9.9665045877660	0.81629853612799
9.9433651077944	0.81629563505317
9.9203328259431	0.81629276921124
9.8974069990096	0.81628993906987
9.8745868906456	0.81628714507683
9.8518717712783	0.81628438766019
9.8292609180328	0.81628166722861
9.8067536146549	0.81627898417158
9.7843491514360	0.81627633885971
9.7620468251384	0.81627373164493
9.7398459389214	0.81627116286080
9.7177458022690	0.81626863282273
9.6957457309185	0.81626614182823
9.6738450467893	0.81626369015721
9.6520430779137	0.81626127807214
9.6303391583681	0.81625890581840
9.6087326282051	0.81625657362447
9.5872228333866	0.81625428170219
9.5658091257179	0.81625203024699
9.5444908627826	0.81624981943818
9.5232674078780	0.81624764943915
9.5021381299525	0.81624552039764
9.4811024035421	0.81624343244597
9.4601596087094	0.81624138570129
9.4393091309824	0.81623938026580
9.4185503612944	0.81623741622702
9.3978826959248	0.81623549365800
9.3773055364404	0.81623361261757
9.3568182896380	0.81623177315059
9.3364203674868	0.81622997528815
9.3161111870727	0.81622821904783
9.2958901705426	0.81622650443391
9.2757567450495	0.81622483143763
9.2557103426984	0.81622320003739
9.2357504004929	0.81622161019901
9.2158763602828	0.81622006187592
9.1960876687117	0.81621855500941
9.1763837771656	0.81621708952885
9.1567641417227	0.81621566535191
9.1372282231027	0.81621428238477
9.1177754866180	0.81621294052237
9.0984054021244	0.81621163964862
9.0791174439733	0.81621037963657
9.0599110909640	0.81620916034872
9.0407858262967	0.81620798163713
9.0217411375263	0.81620684334371
9.0027765165165	0.81620574530041
8.9838914593947	0.81620468732942
8.9650854665072	0.81620366924339
8.9463580423754	0.81620269084562
8.9277086956522	0.81620175193029
8.9091369390788	0.81620085228267
8.8906422894425	0.81619999167929
8.8722242675348	0.81619916988817
8.8538823981099	0.81619838666901
8.8356162098438	0.81619764177340
8.8174252352941	0.81619693494500
8.7993090108600	0.81619626591974
8.7812670767428	0.81619563442603
8.7632989769073	0.81619504018495
8.7454042590432	0.81619448291043
8.7275824745269	0.81619396230943
8.7098331783847	0.81619347808218
8.6921559292549	0.81619302992228
8.6745502893519	0.81619261751700
8.6570158244297	0.81619224054734
8.6395521037464	0.81619189868833
8.6221587000288	0.81619159160911
8.6048351894374	0.81619131897318
8.5875811515325	0.81619108043856
8.5703961692396	0.81619087565792
8.5532798288160	0.81619070427884
8.5362317198178	0.81619056594391
8.5192514350668	0.81619046029095
8.5023385706183	0.81619038695312
8.4854927257288	0.81619034555918
8.4687135028249	0.81619033573357
8.4520005074711	0.81619035709662
8.4353533483399	0.81619040926469
8.4187716371806	0.81619049185038
8.4022549887892	0.81619060446262
8.3858030209790	0.81619074670689
8.3694153545505	0.81619091818534
8.3530916132627	0.81619111849695
8.3368314238042	0.81619134723773
8.3206344157646	0.81619160400078
8.3045002216066	0.81619188837655
8.2884284766381	0.81619219995291
8.2724188189845	0.81619253831531
8.2564708895621	0.81619290304696
8.2405843320506	0.81619329372895
8.2247587928669	0.81619370994039
8.2089939211391	0.81619415125856
8.1932893686800	0.81619461725904
8.1776447899618	0.81619510751587
8.1620598420909	0.81619562160166
8.1465341847826	0.81619615908774
8.1310674803363	0.81619671954428
8.1156593936113	0.81619730254044
8.1003095920022	0.81619790764448
8.0850177454153	0.81619853442391
8.0697835262450	0.81619918244560
8.0546066093498	0.81619985127589
8.0394866720300	0.81620054048076
8.0244233940043	0.81620124962592
8.0094164573871	0.81620197827691
7.9944655466667	0.81620272599926
7.9795703486825	0.81620349235859
7.9647305526036	0.81620427692073
7.9499458499072	0.81620507925180
7.9352159343568	0.81620589891837
7.9205405019815	0.81620673548756
7.9059192510549	0.81620758852710
7.8913518820742	0.81620845760552
7.8768380977404	0.81620934229218
7.8623776029373	0.81621024215741
7.8479701047120	0.81621115677261
7.8336153122550	0.81621208571035
7.8193129368805	0.81621302854446
7.8050626920073	0.81621398485012
7.7908642931393	0.81621495420400
7.7767174578470	0.81621593618429
7.7626219057483	0.81621693037086
7.7485773584906	0.81621793634528
7.7345835397317	0.81621895369097
7.7206401751223	0.81621998199326
7.7067469922879	0.81622102083947
7.6929037208109	0.81622206981902
7.6791100922131	0.81622312852348
7.6653658399386	0.81622419654668
7.6516706993364	0.81622527348478
7.6380244076433	0.81622635893634
7.6244267039674	0.81622745250242
7.6108773292714	0.81622855378662
7.5973760263558	0.81622966239520
7.5839225398432	0.81623077793709
7.5705166161616	0.81623190002402
7.5571580035291	0.81623302827058
7.5438464519376	0.81623416229424
7.5305817131374	0.81623530171548
7.5173635406219	0.81623644615780
7.5041916896120	0.81623759524783
7.4910659170415	0.81623874861535
7.4779859815415	0.81623990589340
7.4649516434263	0.81624106671827
7.4519626646781	0.81624223072962
7.4390188089330	0.81624339757051
7.4261198414664	0.81624456688746
7.4132655291790	0.81624573833048
7.4004556405826	0.81624691155316
7.3876899457861	0.81624808621271
7.3749682164822	0.81624926196996
7.3622902259332	0.81625043848949
7.3496557489581	0.81625161543960
7.3370645619187	0.81625279249241
7.3245164427071	0.81625396932387
7.3120111707317	0.81625514561381
7.2995485269053	0.81625632104599
7.2871282936315	0.81625749530811
7.2747502547925	0.81625866809189
7.2624141957364	0.81625983909308
7.2501199032648	0.81626100801148
7.2378671656205	0.81626217455102
7.2256557724753	0.81626333841975
7.2134855149182	0.81626449932988
7.2013561854432	0.81626565699781
7.1892675779376	0.81626681114419
7.1772194876706	0.81626796149389
7.1652117112811	0.81626910777606
7.1532440467669	0.81627024972416
7.1413162934731	0.81627138707596
7.1294282520809	0.81627251957359
7.1175797245964	0.81627364696351
7.1057705143399	0.81627476899660
7.0940004259347	0.81627588542812
7.0822692652965	0.81627699601775
7.0705768396226	0.81627810052961
7.0589229573817	0.81627919873226
7.0473074283028	0.81628029039871
7.0357300633654	0.81628137530647
7.0241906747891	0.81628245323751
7.0126890760234	0.81628352397829
7.0012250817375	0.81628458731978
6.9897985078107	0.81628564305747
6.9784091713222	0.81628669099133
6.9670568905415	0.81628773092588
6.9557414849188	0.81628876267015
6.9444627750753	0.81628978603768
6.9332205827937	0.81629080084657
6.9220147310090	0.81629180691942
6.9108450437990	0.81629280408336
6.8997113463751	0.81629379217005
6.8886134650735	0.81629477101567
6.8775512273457	0.81629574046093
6.8665244617499	0.81629670035103
6.8555329979419	0.81629765053569
6.8445766666667	0.81629859086914
6.8336552997493	0.81629952121008
6.8227687300865	0.81630044142172
6.8119167916383	0.81630135137172
6.8010993194192	0.81630225093223
6.7903161494904	0.81630313997982
6.7795671189507	0.81630401839552
6.7688520659291	0.81630488606478
6.7581708295762	0.81630574287746
6.7475232500563	0.81630658872782
6.7369091685393	0.81630742351449
6.7263284271932	0.81630824714047
6.7157808691756	0.81630905951309
6.7052663386267	0.81630986054401
6.6947846806610	0.81631065014922
6.6843357413601	0.81631142824895
6.6739193677649	0.81631219476772
6.6635354078684	0.81631294963428
6.6531837106081	0.81631369278159
6.6428641258586	0.81631442414683
6.6325765044248	0.81631514367132
6.6223206980340	0.81631585130052
6.6120965593295	0.81631654698403
6.6019039418630	0.81631723067552
6.5917427000879	0.81631790233272
6.5816126893524	0.81631856191740
6.5715137658922	0.81631920939532
6.5614457868243	0.81631984473624
6.5514086101399	0.81632046791384
6.5414020946978	0.81632107890570
6.5314261002179	0.81632167769331
6.5214804872743	0.81632226426198
6.5115651172893	0.81632283860085
6.5016798525266	0.81632340070283
6.4918245560849	0.81632395056456
6.4819990918919	0.81632448818642
6.4722033246978	0.81632501357245
6.4624371200690	0.81632552673030
6.4527003443823	0.81632602767127
6.4429928648184	0.81632651641018
6.4333145493562	0.81632699296539
6.4236652667667	0.81632745735875
6.4140448866068	0.81632790961554
6.4044532792138	0.81632834976447
6.3948903156997	0.81632877783760
6.3853558679446	0.81632919387031
6.3758498085921	0.81632959790129
6.3663720110427	0.81632998997245
6.3569223494487	0.81633037012890
6.3475006987084	0.81633073841893
6.3381069344609	0.81633109489393
6.3287409330800	0.81633143960836
6.3194025716695	0.81633177261972
6.3100917280572	0.81633209398848
6.3008082807902	0.81633240377807
6.2915521091291	0.81633270205478
6.2823230930427	0.81633298888780
6.2731211132036	0.81633326434907
6.2639460509820	0.81633352851334
6.2547977884415	0.81633378145803
6.2456762083333	0.81633402326325
6.2365811940919	0.81633425401171
6.2275126298297	0.81633447378872
6.2184704003319	0.81633468268208
6.2094543910522	0.81633488078209
6.2004644881075	0.81633506818147
6.1915005782734	0.81633524497532
6.1825625489792	0.81633541126107
6.1736502883031	0.81633556713845
6.1647636849681	0.81633571270939
6.1559026283368	0.81633584807803
6.1470670084068	0.81633597335065
6.1382567158067	0.81633608863561
6.1294716417910	0.81633619404329
6.1207116782360	0.81633628968608
6.1119767176351	0.81633637567831
6.1032666530945	0.81633645213617
6.0945813783289	0.81633651917772
6.0859207876573	0.81633657692278
6.0772847759984	0.81633662549293
6.0686732388664	0.81633666501142
6.0600860723671	0.81633669560315
6.0515231731934	0.81633671739459
6.0429844386212	0.81633673051377
6.0344697665056	0.81633673509016
6.0259790552764	0.81633673125472
6.0175122039342	0.81633671913976
6.0090691120465	0.81633669887892
6.0006496797438	0.81633667060715
5.9922538077154	0.81633663446059
5.9838813972056	0.81633659057660
5.9755323500100	0.81633653909365
5.9672065684713	0.81633648015130
5.9589039554760	0.81633641389013
5.9506244144502	0.81633634045172
5.9423678493558	0.81633625997854
5.9341341646873	0.81633617261398
5.9259232654675	0.81633607850223
5.9177350572444	0.81633597778828
5.9095694460871	0.81633587061784
5.9014263385827	0.81633575713730
5.8933056418321	0.81633563749366
5.8852072634472	0.81633551183454
5.8771311115468	0.81633538030807
5.8690770947533	0.81633524306284
5.8610451221896	0.81633510024792
5.8530351034752	0.81633495201272
5.8450469487229	0.81633479850701
5.8370805685358	0.81633463988085
5.8291358740035	0.81633447628452
5.8212127766990	0.81633430786851
5.8133111886756	0.81633413478343
5.8054310224632	0.81633395718002
5.7975721910656	0.81633377520904
5.7897346079567	0.81633358902127
5.7819181870781	0.81633339876742
5.7741228428351	0.81633320459815
5.7663484900942	0.81633300666394
5.7585950441798	0.81633280511512
5.7508624208709	0.81633260010177
5.7431505363985	0.81633239177371
5.7354593074421	0.81633218028043
5.7277886511272	0.81633196577107
5.7201384850219	0.81633174839436
5.7125087271341	0.81633152829856
5.7048992959087	0.81633130563145
5.6973101102242	0.81633108054029
5.6897410893908	0.81633085317174
5.6821921531463	0.81633062367182
5.6746632216544	0.81633039218593
5.6671542155009	0.81633015885872
5.6596650556919	0.81632992383412
5.6521956636501	0.81632968725527
5.6447459612126	0.81632944926445
5.6373158706281	0.81632921000312
5.6299053145540	0.81632896961179
5.6225142160540	0.81632872823005
5.6151424985952	0.81632848599649
5.6077900860456	0.81632824304868
5.6004569026714	0.81632799952312
5.5931428731343	0.81632775555523
5.5858479224893	0.81632751127927
5.5785719761816	0.81632726682834
5.5713149600446	0.81632702233434
5.5640768002970	0.81632677792790
5.5568574235403	0.81632653373840
5.5496567567568	0.81632628989390
5.5424747273063	0.81632604652109
5.5353112629247	0.81632580374531
5.5281662917204	0.81632556169047
5.5210397421731	0.81632532047904
5.5139315431304	0.81632508023201
5.5068416238060	0.81632484106885
5.4997699137773	0.81632460310752
5.4927163429828	0.81632436646438
5.4856808417200	0.81632413125421
5.4786633406433	0.81632389759014
5.4716637707611	0.81632366558368
5.4646820634342	0.81632343534461
5.4577181503732	0.81632320698103
5.4507719636364	0.81632298059929
5.4438434356274	0.81632275630397
5.4369324990932	0.81632253419787
5.4300390871219	0.81632231438195
5.4231631331404	0.81632209695536
5.4163045709124	0.81632188201537
5.4094633345363	0.81632166965734
5.4026393584430	0.81632145997477
5.3958325773938	0.81632125305917
5.3890429264785	0.81632104900014
5.3822703411131	0.81632084788527
5.3755147570378	0.81632064980018
5.3687761103152	0.81632045482847
5.3620543373278	0.81632026305168
5.3553493747767	0.81632007454932
5.3486611596789	0.81631988939884
5.3419896293656	0.81631970767557
5.3353347214807	0.81631952945274
5.3286963739780	0.81631935480149
5.3220745251198	0.81631918379080
5.3154691134752	0.81631901648748
5.3088800779175	0.81631885295622
5.3023073576229	0.81631869325949
5.2957508920685	0.81631853745759
5.2892106210303	0.81631838560862
5.2826864845815	0.81631823776844
5.2761784230905	0.81631809399072
5.2696863772192	0.81631795432686
5.2632102879213	0.81631781882604
5.2567500964405	0.81631768753516
5.2503057443082	0.81631756049888
5.2438771733427	0.81631743775958
5.2374643256464	0.81631731935737
5.2310671436050	0.81631720533006
5.2246855698850	0.81631709571318
5.2183195474326	0.81631699053998
5.2119690194715	0.81631688984138
5.2056339295016	0.81631679364602
5.1993142212973	0.81631670198024
5.1930098389052	0.81631661486805
5.1867207266436	0.81631653233117
5.1804468290997	0.81631645438900
5.1741880911288	0.81631638105863
5.1679444578521	0.81631631235484
5.1617158746556	0.81631624829011
5.1555022871883	0.81631618887459
5.1493036413604	0.81631613411615
5.1431198833419	0.81631608402033
5.1369509595613	0.81631603859039
5.1307968167037	0.81631599782730
5.1246574017094	0.81631596172972
5.1185326617722	0.81631593029402
5.1124225443383	0.81631590351433
5.1063269971044	0.81631588138247
5.1002459680163	0.81631586388800
5.0941794052676	0.81631585101824
5.0881272572980	0.81631584275825
5.0820894727920	0.81631583909086
5.0760660006773	0.81631583999665
5.0700567901235	0.81631584545400
5.0640617905405	0.81631585543909
5.0580809515775	0.81631586992588
5.0521142231210	0.81631588888616
5.0461615552937	0.81631591228956
5.0402228984533	0.81631594010354
5.0342982031906	0.81631597229342
5.0283874203287	0.81631600882240
5.0224905009214	0.81631604965155
5.0166073962517	0.81631609473987
5.0107380578305	0.81631614404427
5.0048824373957	0.81631619751959
4.9990404869101	0.81631625511864
4.9932121585610	0.81631631679219
4.9873974047579	0.81631638248902
4.9815961781323	0.81631645215591
4.9758084315353	0.81631652573768
4.9700341180371	0.81631660317722
4.9642731909256	0.81631668441546
4.9585256037049	0.81631676939147
4.9527913100942	0.81631685804240
4.9470702640264	0.81631695030356
4.9413624196473	0.81631704610845
4.9356677313138	0.81631714538873
4.9299861535932	0.81631724807428
4.9243176412615	0.81631735409324
4.9186621493027	0.81631746337200
4.9130196329072	0.81631757583525
4.9073900474709	0.81631769140599
4.9017733485939	0.81631781000558
4.8961694920790	0.81631793155376
4.8905784339315	0.81631805596865
4.8850001303569	0.81631818316682
4.8794345377604	0.81631831306330
4.8738816127459	0.81631844557161
4.8683413121143	0.81631858060379
4.8628135928629	0.81631871807044
4.8572984121841	0.81631885788072
4.8517957274640	0.81631899994244
4.8463054962819	0.81631914416203
4.8408276764088	0.81631929044460
4.8353622258065	0.81631943869401
