#Parameters = {thARC=0.2; nARC=2.75; thsub=1; p=1; nSub=2.5}
#"Wavelength / um"	"T (368) [Real Part]"
#---------------------------------------
14.989622900000	0.81238274909296
14.937342202292	0.81235843138540
14.885424925521	0.81233392723858
14.833867293419	0.81230923874275
14.782665581854	0.81228436796431
14.731816117936	0.81225931694591
14.681315279138	0.81223408770667
14.631159492435	0.81220868224225
14.581345233463	0.81218310252501
14.531869025691	0.81215735050420
14.482727439614	0.81213142810604
14.433917091960	0.81210533723392
14.385434644914	0.81207907976848
14.337276805356	0.81205265756784
14.289440324118	0.81202607246767
14.241921995249	0.81199932628138
14.194718655303	0.81197242080025
14.147827182633	0.81194535779358
14.101244496707	0.81191813900883
14.054967557431	0.81189076617179
14.008993364486	0.81186324098670
13.963318956684	0.81183556513642
13.917941411328	0.81180774028256
13.872857843591	0.81177976806564
13.828065405904	0.81175165010524
13.783561287356	0.81172338800015
13.739342713107	0.81169498332849
13.695406943810	0.81166643764791
13.651751275046	0.81163775249571
13.608373036768	0.81160892938896
13.565269592760	0.81157996982473
13.522438340099	0.81155087528015
13.479876708633	0.81152164721263
13.437582160466	0.81149228705997
13.395552189455	0.81146279624052
13.353784320713	0.81143317615333
13.312276110124	0.81140342817832
13.271025143869	0.81137355367638
13.230029037952	0.81134355398959
13.189285437747	0.81131343044129
13.148792017544	0.81128318433632
13.108546480105	0.81125281696108
13.068546556234	0.81122232958375
13.028790004346	0.81119172345440
12.989274610052	0.81116099980517
12.949998185745	0.81113015985037
12.910958570198	0.81109920478671
12.872153628167	0.81106813579336
12.833581250000	0.81103695403217
12.795239351259	0.81100566064778
12.757125872340	0.81097425676778
12.719238778108	0.81094274350287
12.681576057530	0.81091112194699
12.644135723323	0.81087939317750
12.606915811606	0.81084755825527
12.569914381551	0.81081561822492
12.533129515050	0.81078357411486
12.496559316382	0.81075142693753
12.460201911887	0.81071917768950
12.424055449648	0.81068682735162
12.388118099174	0.81065437688921
12.352388051092	0.81062182725212
12.316863516845	0.81058917937499
12.281542728390	0.81055643417729
12.246423937908	0.81052359256355
12.211505417515	0.81049065542344
12.176785458976	0.81045762363197
12.142262373431	0.81042449804959
12.107934491115	0.81039127952240
12.073800161095	0.81035796888219
12.039857751004	0.81032456694671
12.006105646776	0.81029107451970
11.972542252396	0.81025749239111
11.939165989646	0.81022382133721
11.905975297855	0.81019006212077
11.872968633663	0.81015621549112
11.840144470774	0.81012228218440
11.807501299724	0.81008826292361
11.775037627651	0.81005415841881
11.742751978065	0.81001996936725
11.710642890625	0.80998569645347
11.678708920919	0.80995134034950
11.646948640249	0.80991690171497
11.615360635413	0.80988238119724
11.583943508501	0.80984777943154
11.552695876686	0.80981309704116
11.521616372022	0.80977833463750
11.490703641242	0.80974349282029
11.459956345566	0.80970857217765
11.429373160503	0.80967357328632
11.398952775665	0.80963849671170
11.368693894577	0.80960334300805
11.338595234493	0.80956811271859
11.308655526217	0.80953280637566
11.278873513920	0.80949742450084
11.249247954972	0.80946196760509
11.219777619760	0.80942643618885
11.190461291527	0.80939083074224
11.161297766195	0.80935515174513
11.132285852209	0.80931939966729
11.103424370370	0.80928357496852
11.074712153676	0.80924767809881
11.046148047163	0.80921170949841
11.017730907755	0.80917566959801
10.989459604106	0.80913955881884
10.961333016453	0.80910337757282
10.933350036470	0.80906712626266
10.905509567115	0.80903080528200
10.877810522496	0.80899441501554
10.850251827723	0.80895795583916
10.822832418773	0.80892142812005
10.795551242348	0.80888483221682
10.768407255747	0.80884816847964
10.741399426729	0.80881143725035
10.714526733381	0.80877463886258
10.687788163993	0.80873777364188
10.661182716927	0.80870084190585
10.634709400497	0.80866384396423
10.608367232838	0.80862678011905
10.582155241793	0.80858965066473
10.556072464789	0.80855245588819
10.530117948718	0.80851519606901
10.504290749825	0.80847787147948
10.478589933590	0.80844048238479
10.453014574616	0.80840302904306
10.427563756522	0.80836551170556
10.402236571825	0.80832793061670
10.377032121841	0.80829028601426
10.351949516575	0.80825257812943
10.326987874612	0.80821480718694
10.302146323024	0.80817697340516
10.277423997257	0.80813907699625
10.252820041040	0.80810111816621
10.228333606278	0.80806309711506
10.203963852961	0.80802501403686
10.179709949066	0.80798686911989
10.155571070461	0.80794866254674
10.131546400811	0.80791039449439
10.107635131490	0.80787206513434
10.083836461487	0.80783367463268
10.060149597315	0.80779522315026
10.036573752929	0.80775671084273
10.013108149633	0.80771813786065
9.9897520159947	0.80767950434963
9.9665045877660	0.80764081045039
9.9433651077944	0.80760205629886
9.9203328259431	0.80756324202632
9.8974069990096	0.80752436775946
9.8745868906456	0.80748543362048
9.8518717712783	0.80744643972720
9.8292609180328	0.80740738619315
9.8067536146549	0.80736827312766
9.7843491514360	0.80732910063596
9.7620468251384	0.80728986881929
9.7398459389214	0.80725057777493
9.7177458022690	0.80721122759639
9.6957457309185	0.80717181837341
9.6738450467893	0.80713235019210
9.6520430779137	0.80709282313502
9.6303391583681	0.80705323728125
9.6087326282051	0.80701359270651
9.5872228333866	0.80697388948323
9.5658091257179	0.80693412768062
9.5444908627826	0.80689430736479
9.5232674078780	0.80685442859880
9.5021381299525	0.80681449144277
9.4811024035421	0.80677449595396
9.4601596087094	0.80673444218683
9.4393091309824	0.80669433019315
9.4185503612944	0.80665416002205
9.3978826959248	0.80661393172014
9.3773055364404	0.80657364533155
9.3568182896380	0.80653330089803
9.3364203674868	0.80649289845904
9.3161111870727	0.80645243805177
9.2958901705426	0.80641191971128
9.2757567450495	0.80637134347056
9.2557103426984	0.80633070936057
9.2357504004929	0.80629001741035
9.2158763602828	0.80624926764708
9.1960876687117	0.80620846009615
9.1763837771656	0.80616759478124
9.1567641417227	0.80612667172438
9.1372282231027	0.80608569094600
9.1177754866180	0.80604465246507
9.0984054021244	0.80600355629908
9.0791174439733	0.80596240246416
9.0599110909640	0.80592119097514
9.0407858262967	0.80587992184559
9.0217411375263	0.80583859508793
9.0027765165165	0.80579721071345
8.9838914593947	0.80575576873238
8.9650854665072	0.80571426915399
8.9463580423754	0.80567271198660
8.9277086956522	0.80563109723770
8.9091369390788	0.80558942491392
8.8906422894425	0.80554769502121
8.8722242675348	0.80550590756477
8.8538823981099	0.80546406254923
8.8356162098438	0.80542215997860
8.8174252352941	0.80538019985639
8.7993090108600	0.80533818218567
8.7812670767428	0.80529610696907
8.7632989769073	0.80525397420890
8.7454042590432	0.80521178390714
8.7275824745269	0.80516953606554
8.7098331783847	0.80512723068566
8.6921559292549	0.80508486776890
8.6745502893519	0.80504244731658
8.6570158244297	0.80499996932997
8.6395521037464	0.80495743381032
8.6221587000288	0.80491484075898
8.6048351894374	0.80487219017735
8.5875811515325	0.80482948206700
8.5703961692396	0.80478671642968
8.5532798288160	0.80474389326737
8.5362317198178	0.80470101258235
8.5192514350668	0.80465807437720
8.5023385706183	0.80461507865487
8.4854927257288	0.80457202541871
8.4687135028249	0.80452891467253
8.4520005074711	0.80448574642062
8.4353533483399	0.80444252066779
8.4187716371806	0.80439923741942
8.4022549887892	0.80435589668151
8.3858030209790	0.80431249846067
8.3694153545505	0.80426904276421
8.3530916132627	0.80422552960015
8.3368314238042	0.80418195897725
8.3206344157646	0.80413833090507
8.3045002216066	0.80409464539398
8.2884284766381	0.80405090245518
8.2724188189845	0.80400710210079
8.2564708895621	0.80396324434382
8.2405843320506	0.80391932919824
8.2247587928669	0.80387535667898
8.2089939211391	0.80383132680199
8.1932893686800	0.80378723958425
8.1776447899618	0.80374309504380
8.1620598420909	0.80369889319979
8.1465341847826	0.80365463407246
8.1310674803363	0.80361031768321
8.1156593936113	0.80356594405462
8.1003095920022	0.80352151321045
8.0850177454153	0.80347702517569
8.0697835262450	0.80343247997656
8.0546066093498	0.80338787764056
8.0394866720300	0.80334321819648
8.0244233940043	0.80329850167441
8.0094164573871	0.80325372810579
7.9944655466667	0.80320889752338
7.9795703486825	0.80316400996135
7.9647305526036	0.80311906545525
7.9499458499072	0.80307406404203
7.9352159343568	0.80302900576008
7.9205405019815	0.80298389064923
7.9059192510549	0.80293871875078
7.8913518820742	0.80289349010751
7.8768380977404	0.80284820476368
7.8623776029373	0.80280286276507
7.8479701047120	0.80275746415901
7.8336153122550	0.80271200899432
7.8193129368805	0.80266649732140
7.8050626920073	0.80262092919222
7.7908642931393	0.80257530466032
7.7767174578470	0.80252962378083
7.7626219057483	0.80248388661046
7.7485773584906	0.80243809320757
7.7345835397317	0.80239224363210
7.7206401751223	0.80234633794564
7.7067469922879	0.80230037621143
7.6929037208109	0.80225435849432
7.6791100922131	0.80220828486085
7.6653658399386	0.80216215537920
7.6516706993364	0.80211597011924
7.6380244076433	0.80206972915248
7.6244267039674	0.80202343255215
7.6108773292714	0.80197708039314
7.5973760263558	0.80193067275203
7.5839225398432	0.80188420970711
7.5705166161616	0.80183769133836
7.5571580035291	0.80179111772745
7.5438464519376	0.80174448895777
7.5305817131374	0.80169780511441
7.5173635406219	0.80165106628416
7.5041916896120	0.80160427255554
7.4910659170415	0.80155742401875
7.4779859815415	0.80151052076573
7.4649516434263	0.80146356289011
7.4519626646781	0.80141655048724
7.4390188089330	0.80136948365416
7.4261198414664	0.80132236248965
7.4132655291790	0.80127518709416
7.4004556405826	0.80122795756987
7.3876899457861	0.80118067402063
7.3749682164822	0.80113333655203
7.3622902259332	0.80108594527130
7.3496557489581	0.80103850028741
7.3370645619187	0.80099100171098
7.3245164427071	0.80094344965432
7.3120111707317	0.80089584423141
7.2995485269053	0.80084818555792
7.2871282936315	0.80080047375115
7.2747502547925	0.80075270893008
7.2624141957364	0.80070489121533
7.2501199032648	0.80065702072918
7.2378671656205	0.80060909759551
7.2256557724753	0.80056112193985
7.2134855149182	0.80051309388936
7.2013561854432	0.80046501357278
7.1892675779376	0.80041688112048
7.1772194876706	0.80036869666441
7.1652117112811	0.80032046033809
7.1532440467669	0.80027217227664
7.1413162934731	0.80022383261671
7.1294282520809	0.80017544149653
7.1175797245964	0.80012699905586
7.1057705143399	0.80007850543599
7.0940004259347	0.80002996077972
7.0822692652965	0.79998136523137
7.0705768396226	0.79993271893675
7.0589229573817	0.79988402204314
7.0473074283028	0.79983527469931
7.0357300633654	0.79978647705547
7.0241906747891	0.79973762926328
7.0126890760234	0.79968873147582
7.0012250817375	0.79963978384760
6.9897985078107	0.79959078653452
6.9784091713222	0.79954173969388
6.9670568905415	0.79949264348434
6.9557414849188	0.79944349806593
6.9444627750753	0.79939430360001
6.9332205827937	0.79934506024927
6.9220147310090	0.79929576817773
6.9108450437990	0.79924642755069
6.8997113463751	0.79919703853472
6.8886134650735	0.79914760129769
6.8775512273457	0.79909811600869
6.8665244617499	0.79904858283805
6.8555329979419	0.79899900195732
6.8445766666667	0.79894937353923
6.8336552997493	0.79889969775772
6.8227687300865	0.79884997478788
6.8119167916383	0.79880020480593
6.8010993194192	0.79875038798926
6.7903161494904	0.79870052451632
6.7795671189507	0.79865061456670
6.7688520659291	0.79860065832104
6.7581708295762	0.79855065596103
6.7475232500563	0.79850060766943
6.7369091685393	0.79845051362999
6.7263284271932	0.79840037402747
6.7157808691756	0.79835018904763
6.7052663386267	0.79829995887716
6.6947846806610	0.79824968370372
6.6843357413601	0.79819936371590
6.6739193677649	0.79814899910317
6.6635354078684	0.79809859005591
6.6531837106081	0.79804813676536
6.6428641258586	0.79799763942360
6.6325765044248	0.79794709822356
6.6223206980340	0.79789651335895
6.6120965593295	0.79784588502430
6.6019039418630	0.79779521341487
6.5917427000879	0.79774449872671
6.5816126893524	0.79769374115658
6.5715137658922	0.79764294090193
6.5614457868243	0.79759209816093
6.5514086101399	0.79754121313240
6.5414020946978	0.79749028601582
6.5314261002179	0.79743931701129
6.5214804872743	0.79738830631950
6.5115651172893	0.79733725414177
6.5016798525266	0.79728616067995
6.4918245560849	0.79723502613644
6.4819990918919	0.79718385071419
6.4722033246978	0.79713263461662
6.4624371200690	0.79708137804767
6.4527003443823	0.79703008121172
6.4429928648184	0.79697874431359
6.4333145493562	0.79692736755855
6.4236652667667	0.79687595115225
6.4140448866068	0.79682449530073
6.4044532792138	0.79677300021038
6.3948903156997	0.79672146608796
6.3853558679446	0.79666989314052
6.3758498085921	0.79661828157542
6.3663720110427	0.79656663160031
6.3569223494487	0.79651494342309
6.3475006987084	0.79646321725190
6.3381069344609	0.79641145329510
6.3287409330800	0.79635965176125
6.3194025716695	0.79630781285909
6.3100917280572	0.79625593679750
6.3008082807902	0.79620402378554
6.2915521091291	0.79615207403235
6.2823230930427	0.79610008774718
6.2731211132036	0.79604806513936
6.2639460509820	0.79599600641828
6.2547977884415	0.79594391179338
6.2456762083333	0.79589178147409
6.2365811940919	0.79583961566987
6.2275126298297	0.79578741459014
6.2184704003319	0.79573517844429
6.2094543910522	0.79568290744166
6.2004644881075	0.79563060179150
6.1915005782734	0.79557826170296
6.1825625489792	0.79552588738510
6.1736502883031	0.79547347904682
6.1647636849681	0.79542103689687
6.1559026283368	0.79536856114384
6.1470670084068	0.79531605199612
6.1382567158067	0.79526350966191
6.1294716417910	0.79521093434916
6.1207116782360	0.79515832626559
6.1119767176351	0.79510568561865
6.1032666530945	0.79505301261551
6.0945813783289	0.79500030746305
6.0859207876573	0.79494757036783
6.0772847759984	0.79489480153608
6.0686732388664	0.79484200117366
6.0600860723671	0.79478916948610
6.0515231731934	0.79473630667852
6.0429844386212	0.79468341295563
6.0344697665056	0.79463048852176
6.0259790552764	0.79457753358076
6.0175122039342	0.79452454833607
6.0090691120465	0.79447153299063
6.0006496797438	0.79441848774693
5.9922538077154	0.79436541280694
5.9838813972056	0.79431230837212
5.9755323500100	0.79425917464340
5.9672065684713	0.79420601182118
5.9589039554760	0.79415282010528
5.9506244144502	0.79409959969496
5.9423678493558	0.79404635078890
5.9341341646873	0.79399307358514
5.9259232654675	0.79393976828115
5.9177350572444	0.79388643507373
5.9095694460871	0.79383307415906
5.9014263385827	0.79377968573265
5.8933056418321	0.79372626998933
5.8852072634472	0.79367282712328
5.8771311115468	0.79361935732793
5.8690770947533	0.79356586079603
5.8610451221896	0.79351233771962
5.8530351034752	0.79345878828996
5.8450469487229	0.79340521269760
5.8370805685358	0.79335161113231
5.8291358740035	0.79329798378311
5.8212127766990	0.79324433083820
5.8133111886756	0.79319065248502
5.8054310224632	0.79313694891018
5.7975721910656	0.79308322029950
5.7897346079567	0.79302946683795
5.7819181870781	0.79297568870967
5.7741228428351	0.79292188609796
5.7663484900942	0.79286805918524
5.7585950441798	0.79281420815310
5.7508624208709	0.79276033318222
5.7431505363985	0.79270643445241
5.7354593074421	0.79265251214259
5.7277886511272	0.79259856643076
5.7201384850219	0.79254459749403
5.7125087271341	0.79249060550858
5.7048992959087	0.79243659064967
5.6973101102242	0.79238255309161
5.6897410893908	0.79232849300777
5.6821921531463	0.79227441057060
5.6746632216544	0.79222030595155
5.6671542155009	0.79216617932115
5.6596650556919	0.79211203084892
5.6521956636501	0.79205786070344
5.6447459612126	0.79200366905229
5.6373158706281	0.79194945606206
5.6299053145540	0.79189522189836
5.6225142160540	0.79184096672581
5.6151424985952	0.79178669070800
5.6077900860456	0.79173239400753
5.6004569026714	0.79167807678600
5.5931428731343	0.79162373920398
5.5858479224893	0.79156938142103
5.5785719761816	0.79151500359567
5.5713149600446	0.79146060588543
5.5640768002970	0.79140618844677
5.5568574235403	0.79135175143515
5.5496567567568	0.79129729500499
5.5424747273063	0.79124281930967
5.5353112629247	0.79118832450152
5.5281662917204	0.79113381073186
5.5210397421731	0.79107927815094
5.5139315431304	0.79102472690800
5.5068416238060	0.79097015715120
5.4997699137773	0.79091556902769
5.4927163429828	0.79086096268357
5.4856808417200	0.79080633826387
5.4786633406433	0.79075169591261
5.4716637707611	0.79069703577275
5.4646820634342	0.79064235798621
5.4577181503732	0.79058766269388
5.4507719636364	0.79053295003559
5.4438434356274	0.79047822015015
5.4369324990932	0.79042347317534
5.4300390871219	0.79036870924787
5.4231631331404	0.79031392850346
5.4163045709124	0.79025913107677
5.4094633345363	0.79020431710145
5.4026393584430	0.79014948671012
5.3958325773938	0.79009464003439
5.3890429264785	0.79003977720483
5.3822703411131	0.78998489835104
5.3755147570378	0.78993000360156
5.3687761103152	0.78987509308397
5.3620543373278	0.78982016692483
5.3553493747767	0.78976522524970
5.3486611596789	0.78971026818316
5.3419896293656	0.78965529584882
5.3353347214807	0.78960030836929
5.3286963739780	0.78954530586621
5.3220745251198	0.78949028846027
5.3154691134752	0.78943525627120
5.3088800779175	0.78938020941775
5.3023073576229	0.78932514801776
5.2957508920685	0.78927007218811
5.2892106210303	0.78921498204476
5.2826864845815	0.78915987770274
5.2761784230905	0.78910475927616
5.2696863772192	0.78904962687824
5.2632102879213	0.78899448062129
5.2567500964405	0.78893932061672
5.2503057443082	0.78888414697509
5.2438771733427	0.78882895980605
5.2374643256464	0.78877375921842
5.2310671436050	0.78871854532014
5.2246855698850	0.78866331821833
5.2183195474326	0.78860807801927
5.2119690194715	0.78855282482840
5.2056339295016	0.78849755875037
5.1993142212973	0.78844227988903
5.1930098389052	0.78838698834742
5.1867207266436	0.78833168422781
5.1804468290997	0.78827636763170
5.1741880911288	0.78822103865984
5.1679444578521	0.78816569741224
5.1617158746556	0.78811034398815
5.1555022871883	0.78805497848613
5.1493036413604	0.78799960100403
5.1431198833419	0.78794421163898
5.1369509595613	0.78788881048744
5.1307968167037	0.78783339764523
5.1246574017094	0.78777797320746
5.1185326617722	0.78772253726863
5.1124225443383	0.78766708992262
5.1063269971044	0.78761163126267
5.1002459680163	0.78755616138143
5.0941794052676	0.78750068037096
5.0881272572980	0.78744518832276
5.0820894727920	0.78738968532776
5.0760660006773	0.78733417147635
5.0700567901235	0.78727864685838
5.0640617905405	0.78722311156321
5.0580809515775	0.78716756567969
5.0521142231210	0.78711200929617
5.0461615552937	0.78705644250057
5.0402228984533	0.78700086538033
5.0342982031906	0.78694527802246
5.0283874203287	0.78688968051356
5.0224905009214	0.78683407293982
5.0166073962517	0.78677845538705
5.0107380578305	0.78672282794068
5.0048824373957	0.78666719068580
4.9990404869101	0.78661154370713
4.9932121585610	0.78655588708913
4.9873974047579	0.78650022091589
4.9815961781323	0.78644454527127
4.9758084315353	0.78638886023883
4.9700341180371	0.78633316590189
4.9642731909256	0.78627746234354
4.9585256037049	0.78622174964664
4.9527913100942	0.78616602789388
4.9470702640264	0.78611029716774
4.9413624196473	0.78605455755055
4.9356677313138	0.78599880912451
4.9299861535932	0.78594305197168
4.9243176412615	0.78588728617401
4.9186621493027	0.78583151181338
4.9130196329072	0.78577572897159
4.9073900474709	0.78571993773037
4.9017733485939	0.78566413817145
4.8961694920790	0.78560833037654
4.8905784339315	0.78555251442733
4.8850001303569	0.78549669040555
4.8794345377604	0.78544085839300
4.8738816127459	0.78538501847149
4.8683413121143	0.78532917072295
4.8628135928629	0.78527331522941
4.8572984121841	0.78521745207299
4.8517957274640	0.78516158133598
4.8463054962819	0.78510570310081
4.8408276764088	0.78504981745011
4.8353622258065	0.78499392446667
