#Parameters = {thARC=0.6; nARC=2.5; thsub=1; p=1; nSub=2.5}
#"Wavelength / um"	"T (364) [Real Part]"
#---------------------------------------
14.989622900000	0.81632634848958
14.937342202292	0.81636153619478
14.885424925521	0.81639571450151
14.833867293419	0.81642889781041
14.782665581854	0.81646110043073
14.731816117936	0.81649233657976
14.681315279138	0.81652262038227
14.631159492435	0.81655196586997
14.581345233463	0.81658038698105
14.531869025691	0.81660789755964
14.482727439614	0.81663451135533
14.433917091960	0.81666024202276
14.385434644914	0.81668510312113
14.337276805356	0.81670910811377
14.289440324118	0.81673227036779
14.241921995249	0.81675460315362
14.194718655303	0.81677611964466
14.147827182633	0.81679683291693
14.101244496707	0.81681675594870
14.054967557431	0.81683590162020
14.008993364486	0.81685428271325
13.963318956684	0.81687191191104
13.917941411328	0.81688880179775
13.872857843591	0.81690496485838
13.828065405904	0.81692041347845
13.783561287356	0.81693515994376
13.739342713107	0.81694921644018
13.695406943810	0.81696259505346
13.651751275046	0.81697530776901
13.608373036768	0.81698736647174
13.565269592760	0.81699878294590
13.522438340099	0.81700956887493
13.479876708633	0.81701973584132
13.437582160466	0.81702929532648
13.395552189455	0.81703825871067
13.353784320713	0.81704663727289
13.312276110124	0.81705444219078
13.271025143869	0.81706168454058
13.230029037952	0.81706837529709
13.189285437747	0.81707452533359
13.148792017544	0.81708014542186
13.108546480105	0.81708524623215
13.068546556234	0.81708983833315
13.028790004346	0.81709393219207
12.989274610052	0.81709753817461
12.949998185745	0.81710066654501
12.910958570198	0.81710332746612
12.872153628167	0.81710553099945
12.833581250000	0.81710728710522
12.795239351259	0.81710860564250
12.757125872340	0.81710949636926
12.719238778108	0.81710996894250
12.681576057530	0.81711003291838
12.644135723323	0.81710969775231
12.606915811606	0.81710897279914
12.569914381551	0.81710786731331
12.533129515050	0.81710639044897
12.496559316382	0.81710455126020
12.460201911887	0.81710235870119
12.424055449648	0.81709982162640
12.388118099174	0.81709694879082
12.352388051092	0.81709374885014
12.316863516845	0.81709023036100
12.281542728390	0.81708640178123
12.246423937908	0.81708227147006
12.211505417515	0.81707784768842
12.176785458976	0.81707313859919
12.142262373431	0.81706815226744
12.107934491115	0.81706289666077
12.073800161095	0.81705737964956
12.039857751004	0.81705160900727
12.006105646776	0.81704559241076
11.972542252396	0.81703933744063
11.939165989646	0.81703285158150
11.905975297855	0.81702614222238
11.872968633663	0.81701921665698
11.840144470774	0.81701208208409
11.807501299724	0.81700474560792
11.775037627651	0.81699721423848
11.742751978065	0.81698949489193
11.710642890625	0.81698159439097
11.678708920919	0.81697351946525
11.646948640249	0.81696527675173
11.615360635413	0.81695687279509
11.583943508501	0.81694831404816
11.552695876686	0.81693960687230
11.521616372022	0.81693075753787
11.490703641242	0.81692177222459
11.459956345566	0.81691265702206
11.429373160503	0.81690341793011
11.398952775665	0.81689406085933
11.368693894577	0.81688459163147
11.338595234493	0.81687501597989
11.308655526217	0.81686533955008
11.278873513920	0.81685556790009
11.249247954972	0.81684570650100
11.219777619760	0.81683576073743
11.190461291527	0.81682573590801
11.161297766195	0.81681563722585
11.132285852209	0.81680546981909
11.103424370370	0.81679523873134
11.074712153676	0.81678494892223
11.046148047163	0.81677460526791
11.017730907755	0.81676421256155
10.989459604106	0.81675377551387
10.961333016453	0.81674329875367
10.933350036470	0.81673278682834
10.905509567115	0.81672224420442
10.877810522496	0.81671167526811
10.850251827723	0.81670108432583
10.822832418773	0.81669047560473
10.795551242348	0.81667985325329
10.768407255747	0.81666922134181
10.741399426729	0.81665858386303
10.714526733381	0.81664794473262
10.687788163993	0.81663730778979
10.661182716927	0.81662667679785
10.634709400497	0.81661605544473
10.608367232838	0.81660544734361
10.582155241793	0.81659485603347
10.556072464789	0.81658428497964
10.530117948718	0.81657373757441
10.504290749825	0.81656321713760
10.478589933590	0.81655272691715
10.453014574616	0.81654227008969
10.427563756522	0.81653184976112
10.402236571825	0.81652146896724
10.377032121841	0.81651113067430
10.351949516575	0.81650083777960
10.326987874612	0.81649059311210
10.302146323024	0.81648039943303
10.277423997257	0.81647025943644
10.252820041040	0.81646017574984
10.228333606278	0.81645015093478
10.203963852961	0.81644018748747
10.179709949066	0.81643028783938
10.155571070461	0.81642045435784
10.131546400811	0.81641068934664
10.107635131490	0.81640099504665
10.083836461487	0.81639137363641
10.060149597315	0.81638182723278
10.036573752929	0.81637235789150
10.013108149633	0.81636296760782
9.9897520159947	0.81635365831714
9.9665045877660	0.81634443189557
9.9433651077944	0.81633529016057
9.9203328259431	0.81632623487158
9.8974069990096	0.81631726773059
9.8745868906456	0.81630839038279
9.8518717712783	0.81629960441717
9.8292609180328	0.81629091136712
9.8067536146549	0.81628231271106
9.7843491514360	0.81627380987307
9.7620468251384	0.81626540422346
9.7398459389214	0.81625709707940
9.7177458022690	0.81624888970555
9.6957457309185	0.81624078331467
9.6738450467893	0.81623277906820
9.6520430779137	0.81622487807690
9.6303391583681	0.81621708140145
9.6087326282051	0.81620939005306
9.5872228333866	0.81620180499411
9.5658091257179	0.81619432713868
9.5444908627826	0.81618695735325
9.5232674078780	0.81617969645725
9.5021381299525	0.81617254522368
9.4811024035421	0.81616550437971
9.4601596087094	0.81615857460729
9.4393091309824	0.81615175654376
9.4185503612944	0.81614505078244
9.3978826959248	0.81613845787322
9.3773055364404	0.81613197832317
9.3568182896380	0.81612561259716
9.3364203674868	0.81611936111840
9.3161111870727	0.81611322426911
9.2958901705426	0.81610720239103
9.2757567450495	0.81610129578606
9.2557103426984	0.81609550471687
9.2357504004929	0.81608982940741
9.2158763602828	0.81608427004359
9.1960876687117	0.81607882677378
9.1763837771656	0.81607349970945
9.1567641417227	0.81606828892573
9.1372282231027	0.81606319446197
9.1177754866180	0.81605821632237
9.0984054021244	0.81605335447649
9.0791174439733	0.81604860885984
9.0599110909640	0.81604397937449
9.0407858262967	0.81603946588958
9.0217411375263	0.81603506824195
9.0027765165165	0.81603078623661
8.9838914593947	0.81602661964740
8.9650854665072	0.81602256821749
8.9463580423754	0.81601863165994
8.9277086956522	0.81601480965827
8.9091369390788	0.81601110186701
8.8906422894425	0.81600750791223
8.8722242675348	0.81600402739210
8.8538823981099	0.81600065987742
8.8356162098438	0.81599740491218
8.8174252352941	0.81599426201409
8.7993090108600	0.81599123067508
8.7812670767428	0.81598831036190
8.7632989769073	0.81598550051658
8.7454042590432	0.81598280055701
8.7275824745269	0.81598020987742
8.7098331783847	0.81597772784892
8.6921559292549	0.81597535382003
8.6745502893519	0.81597308711716
8.6570158244297	0.81597092704515
8.6395521037464	0.81596887288778
8.6221587000288	0.81596692390822
8.6048351894374	0.81596507934963
8.5875811515325	0.81596333843555
8.5703961692396	0.81596170037048
8.5532798288160	0.81596016434032
8.5362317198178	0.81595872951288
8.5192514350668	0.81595739503836
8.5023385706183	0.81595616004984
8.4854927257288	0.81595502366373
8.4687135028249	0.81595398498028
8.4520005074711	0.81595304308405
8.4353533483399	0.81595219704432
8.4187716371806	0.81595144591565
8.4022549887892	0.81595078873825
8.3858030209790	0.81595022453850
8.3694153545505	0.81594975232936
8.3530916132627	0.81594937111087
8.3368314238042	0.81594907987052
8.3206344157646	0.81594887758379
8.3045002216066	0.81594876321450
8.2884284766381	0.81594873571531
8.2724188189845	0.81594879402811
8.2564708895621	0.81594893708447
8.2405843320506	0.81594916380606
8.2247587928669	0.81594947310505
8.2089939211391	0.81594986388458
8.1932893686800	0.81595033503911
8.1776447899618	0.81595088545486
8.1620598420909	0.81595151401024
8.1465341847826	0.81595221957618
8.1310674803363	0.81595300101661
8.1156593936113	0.81595385718880
8.1003095920022	0.81595478694377
8.0850177454153	0.81595578912665
8.0697835262450	0.81595686257712
8.0546066093498	0.81595800612973
8.0394866720300	0.81595921861430
8.0244233940043	0.81596049885627
8.0094164573871	0.81596184567711
7.9944655466667	0.81596325789464
7.9795703486825	0.81596473432339
7.9647305526036	0.81596627377498
7.9499458499072	0.81596787505846
7.9352159343568	0.81596953698065
7.9205405019815	0.81597125834647
7.9059192510549	0.81597303795930
7.8913518820742	0.81597487462132
7.8768380977404	0.81597676713381
7.8623776029373	0.81597871429751
7.8479701047120	0.81598071491289
7.8336153122550	0.81598276778053
7.8193129368805	0.81598487170141
7.8050626920073	0.81598702547719
7.7908642931393	0.81598922791056
7.7767174578470	0.81599147780551
7.7626219057483	0.81599377396765
7.7485773584906	0.81599611520447
7.7345835397317	0.81599850032568
7.7206401751223	0.81600092814343
7.7067469922879	0.81600339747267
7.6929037208109	0.81600590713134
7.6791100922131	0.81600845594071
7.6653658399386	0.81601104272563
7.6516706993364	0.81601366631475
7.6380244076433	0.81601632554087
7.6244267039674	0.81601901924111
7.6108773292714	0.81602174625720
7.5973760263558	0.81602450543574
7.5839225398432	0.81602729562840
7.5705166161616	0.81603011569222
7.5571580035291	0.81603296448979
7.5438464519376	0.81603584088951
7.5305817131374	0.81603874376582
7.5173635406219	0.81604167199942
7.5041916896120	0.81604462447745
7.4910659170415	0.81604760009378
7.4779859815415	0.81605059774916
7.4649516434263	0.81605361635146
7.4519626646781	0.81605665481584
7.4390188089330	0.81605971206499
7.4261198414664	0.81606278702929
7.4132655291790	0.81606587864703
7.4004556405826	0.81606898586457
7.3876899457861	0.81607210763654
7.3749682164822	0.81607524292601
7.3622902259332	0.81607839070468
7.3496557489581	0.81608154995302
7.3370645619187	0.81608471966047
7.3245164427071	0.81608789882558
7.3120111707317	0.81609108645620
7.2995485269053	0.81609428156959
7.2871282936315	0.81609748319259
7.2747502547925	0.81610069036179
7.2624141957364	0.81610390212365
7.2501199032648	0.81610711753464
7.2378671656205	0.81611033566138
7.2256557724753	0.81611355558078
7.2134855149182	0.81611677638013
7.2013561854432	0.81611999715730
7.1892675779376	0.81612321702077
7.1772194876706	0.81612643508981
7.1652117112811	0.81612965049458
7.1532440467669	0.81613286237621
7.1413162934731	0.81613606988694
7.1294282520809	0.81613927219022
7.1175797245964	0.81614246846076
7.1057705143399	0.81614565788470
7.0940004259347	0.81614883965962
7.0822692652965	0.81615201299471
7.0705768396226	0.81615517711078
7.0589229573817	0.81615833124037
7.0473074283028	0.81616147462783
7.0357300633654	0.81616460652941
7.0241906747891	0.81616772621327
7.0126890760234	0.81617083295960
7.0012250817375	0.81617392606066
6.9897985078107	0.81617700482084
6.9784091713222	0.81618006855672
6.9670568905415	0.81618311659712
6.9557414849188	0.81618614828314
6.9444627750753	0.81618916296821
6.9332205827937	0.81619216001813
6.9220147310090	0.81619513881111
6.9108450437990	0.81619809873781
6.8997113463751	0.81620103920136
6.8886134650735	0.81620395961738
6.8775512273457	0.81620685941404
6.8665244617499	0.81620973803205
6.8555329979419	0.81621259492467
6.8445766666667	0.81621542955776
6.8336552997493	0.81621824140978
6.8227687300865	0.81622102997178
6.8119167916383	0.81622379474740
6.8010993194192	0.81622653525294
6.7903161494904	0.81622925101725
6.7795671189507	0.81623194158185
6.7688520659291	0.81623460650080
6.7581708295762	0.81623724534079
6.7475232500563	0.81623985768108
6.7369091685393	0.81624244311349
6.7263284271932	0.81624500124239
6.7157808691756	0.81624753168466
6.7052663386267	0.81625003406970
6.6947846806610	0.81625250803937
6.6843357413601	0.81625495324798
6.6739193677649	0.81625736936226
6.6635354078684	0.81625975606130
6.6531837106081	0.81626211303655
6.6428641258586	0.81626443999174
6.6325765044248	0.81626673664288
6.6223206980340	0.81626900271817
6.6120965593295	0.81627123795799
6.6019039418630	0.81627344211483
6.5917427000879	0.81627561495325
6.5816126893524	0.81627775624979
6.5715137658922	0.81627986579296
6.5614457868243	0.81628194338317
6.5514086101399	0.81628398883262
6.5414020946978	0.81628600196530
6.5314261002179	0.81628798261689
6.5214804872743	0.81628993063468
6.5115651172893	0.81629184587753
6.5016798525266	0.81629372821577
6.4918245560849	0.81629557753113
6.4819990918919	0.81629739371669
6.4722033246978	0.81629917667675
6.4624371200690	0.81630092632677
6.4527003443823	0.81630264259331
6.4429928648184	0.81630432541391
6.4333145493562	0.81630597473701
6.4236652667667	0.81630759052188
6.4140448866068	0.81630917273849
6.4044532792138	0.81631072136746
6.3948903156997	0.81631223639994
6.3853558679446	0.81631371783749
6.3758498085921	0.81631516569204
6.3663720110427	0.81631657998573
6.3569223494487	0.81631796075084
6.3475006987084	0.81631930802968
6.3381069344609	0.81632062187447
6.3287409330800	0.81632190234727
6.3194025716695	0.81632314951981
6.3100917280572	0.81632436347343
6.3008082807902	0.81632554429896
6.2915521091291	0.81632669209659
6.2823230930427	0.81632780697576
6.2731211132036	0.81632888905504
6.2639460509820	0.81632993846204
6.2547977884415	0.81633095533325
6.2456762083333	0.81633193981394
6.2365811940919	0.81633289205806
6.2275126298297	0.81633381222805
6.2184704003319	0.81633470049480
6.2094543910522	0.81633555703747
6.2004644881075	0.81633638204338
6.1915005782734	0.81633717570788
6.1825625489792	0.81633793823422
6.1736502883031	0.81633866983342
6.1647636849681	0.81633937072417
6.1559026283368	0.81634004113262
6.1470670084068	0.81634068129235
6.1382567158067	0.81634129144416
6.1294716417910	0.81634187183597
6.1207116782360	0.81634242272266
6.1119767176351	0.81634294436597
6.1032666530945	0.81634343703434
6.0945813783289	0.81634390100278
6.0859207876573	0.81634433655272
6.0772847759984	0.81634474397189
6.0686732388664	0.81634512355418
6.0600860723671	0.81634547559948
6.0515231731934	0.81634580041356
6.0429844386212	0.81634609830792
6.0344697665056	0.81634636959966
6.0259790552764	0.81634661461132
6.0175122039342	0.81634683367075
6.0090691120465	0.81634702711098
6.0006496797438	0.81634719527005
5.9922538077154	0.81634733849088
5.9838813972056	0.81634745712115
5.9755323500100	0.81634755151309
5.9672065684713	0.81634762202344
5.9589039554760	0.81634766901320
5.9506244144502	0.81634769284756
5.9423678493558	0.81634769389572
5.9341341646873	0.81634767253076
5.9259232654675	0.81634762912948
5.9177350572444	0.81634756407229
5.9095694460871	0.81634747774303
5.9014263385827	0.81634737052883
5.8933056418321	0.81634724282000
5.8852072634472	0.81634709500985
5.8771311115468	0.81634692749456
5.8690770947533	0.81634674067302
5.8610451221896	0.81634653494673
5.8530351034752	0.81634631071962
5.8450469487229	0.81634606839790
5.8370805685358	0.81634580838995
5.8291358740035	0.81634553110616
5.8212127766990	0.81634523695880
5.8133111886756	0.81634492636183
5.8054310224632	0.81634459973085
5.7975721910656	0.81634425748287
5.7897346079567	0.81634390003622
5.7819181870781	0.81634352781041
5.7741228428351	0.81634314122596
5.7663484900942	0.81634274070428
5.7585950441798	0.81634232666756
5.7508624208709	0.81634189953857
5.7431505363985	0.81634145974058
5.7354593074421	0.81634100769720
5.7277886511272	0.81634054383225
5.7201384850219	0.81634006856962
5.7125087271341	0.81633958233313
5.7048992959087	0.81633908554644
5.6973101102242	0.81633857863284
5.6897410893908	0.81633806201520
5.6821921531463	0.81633753611578
5.6746632216544	0.81633700135615
5.6671542155009	0.81633645815700
5.6596650556919	0.81633590693806
5.6521956636501	0.81633534811799
5.6447459612126	0.81633478211418
5.6373158706281	0.81633420934270
5.6299053145540	0.81633363021814
5.6225142160540	0.81633304515347
5.6151424985952	0.81633245455999
5.6077900860456	0.81633185884710
5.6004569026714	0.81633125842230
5.5931428731343	0.81633065369098
5.5858479224893	0.81633004505635
5.5785719761816	0.81632943291929
5.5713149600446	0.81632881767829
5.5640768002970	0.81632819972926
5.5568574235403	0.81632757946551
5.5496567567568	0.81632695727754
5.5424747273063	0.81632633355301
5.5353112629247	0.81632570867659
5.5281662917204	0.81632508302987
5.5210397421731	0.81632445699124
5.5139315431304	0.81632383093581
5.5068416238060	0.81632320523526
5.4997699137773	0.81632258025780
5.4927163429828	0.81632195636802
5.4856808417200	0.81632133392683
5.4786633406433	0.81632071329133
5.4716637707611	0.81632009481471
5.4646820634342	0.81631947884621
5.4577181503732	0.81631886573097
5.4507719636364	0.81631825580996
5.4438434356274	0.81631764941989
5.4369324990932	0.81631704689312
5.4300390871219	0.81631644855757
5.4231631331404	0.81631585473667
5.4163045709124	0.81631526574920
5.4094633345363	0.81631468190929
5.4026393584430	0.81631410352629
5.3958325773938	0.81631353090471
5.3890429264785	0.81631296434413
5.3822703411131	0.81631240413915
5.3755147570378	0.81631185057928
5.3687761103152	0.81631130394891
5.3620543373278	0.81631076452721
5.3553493747767	0.81631023258806
5.3486611596789	0.81630970840001
5.3419896293656	0.81630919222618
5.3353347214807	0.81630868432424
5.3286963739780	0.81630818494630
5.3220745251198	0.81630769433888
5.3154691134752	0.81630721274286
5.3088800779175	0.81630674039339
5.3023073576229	0.81630627751988
5.2957508920685	0.81630582434589
5.2892106210303	0.81630538108915
5.2826864845815	0.81630494796144
5.2761784230905	0.81630452516860
5.2696863772192	0.81630411291045
5.2632102879213	0.81630371138077
5.2567500964405	0.81630332076723
5.2503057443082	0.81630294125138
5.2438771733427	0.81630257300859
5.2374643256464	0.81630221620803
5.2310671436050	0.81630187101263
5.2246855698850	0.81630153757904
5.2183195474326	0.81630121605760
5.2119690194715	0.81630090659234
5.2056339295016	0.81630060932092
5.1993142212973	0.81630032437460
5.1930098389052	0.81630005187827
5.1867207266436	0.81629979195035
5.1804468290997	0.81629954470285
5.1741880911288	0.81629931024131
5.1679444578521	0.81629908866476
5.1617158746556	0.81629888006578
5.1555022871883	0.81629868453042
5.1493036413604	0.81629850213823
5.1431198833419	0.81629833296224
5.1369509595613	0.81629817706894
5.1307968167037	0.81629803451830
5.1246574017094	0.81629790536375
5.1185326617722	0.81629778965221
5.1124225443383	0.81629768742403
5.1063269971044	0.81629759871308
5.1002459680163	0.81629752354666
5.0941794052676	0.81629746194560
5.0881272572980	0.81629741392420
5.0820894727920	0.81629737949027
5.0760660006773	0.81629735864514
5.0700567901235	0.81629735138368
5.0640617905405	0.81629735769431
5.0580809515775	0.81629737755901
5.0521142231210	0.81629741095336
5.0461615552937	0.81629745784656
5.0402228984533	0.81629751820143
5.0342982031906	0.81629759197446
5.0283874203287	0.81629767911583
5.0224905009214	0.81629777956945
5.0166073962517	0.81629789327296
5.0107380578305	0.81629802015781
5.0048824373957	0.81629816014925
4.9990404869101	0.81629831316640
4.9932121585610	0.81629847912227
4.9873974047579	0.81629865792381
4.9815961781323	0.81629884947194
4.9758084315353	0.81629905366160
4.9700341180371	0.81629927038181
4.9642731909256	0.81629949951569
4.9585256037049	0.81629974094054
4.9527913100942	0.81629999452786
4.9470702640264	0.81630026014343
4.9413624196473	0.81630053764733
4.9356677313138	0.81630082689403
4.9299861535932	0.81630112773244
4.9243176412615	0.81630144000595
4.9186621493027	0.81630176355252
4.9130196329072	0.81630209820470
4.9073900474709	0.81630244378973
4.9017733485939	0.81630280012962
4.8961694920790	0.81630316704115
4.8905784339315	0.81630354433602
4.8850001303569	0.81630393182084
4.8794345377604	0.81630432929728
4.8738816127459	0.81630473656209
4.8683413121143	0.81630515340718
4.8628135928629	0.81630557961971
4.8572984121841	0.81630601498219
4.8517957274640	0.81630645927248
4.8463054962819	0.81630691226398
4.8408276764088	0.81630737372562
4.8353622258065	0.81630784342197
