#Parameters = {thARC=0.4; nARC=2.75; thsub=1; p=1; nSub=2.5}
#"Wavelength / um"	"T (369) [Real Part]"
#---------------------------------------
14.989622900000	0.80157407264612
14.937342202292	0.80149677212665
14.885424925521	0.80141875280643
14.833867293419	0.80134002376263
14.782665581854	0.80126059400991
14.731816117936	0.80118047250038
14.681315279138	0.80109966812357
14.631159492435	0.80101818970634
14.581345233463	0.80093604601292
14.531869025691	0.80085324574481
14.482727439614	0.80076979754083
14.433917091960	0.80068570997706
14.385434644914	0.80060099156686
14.337276805356	0.80051565076086
14.289440324118	0.80042969594700
14.241921995249	0.80034313545049
14.194718655303	0.80025597753390
14.147827182633	0.80016823039714
14.101244496707	0.80007990217753
14.054967557431	0.79999100094983
14.008993364486	0.79990153472627
13.963318956684	0.79981151145665
13.917941411328	0.79972093902836
13.872857843591	0.79962982526647
13.828065405904	0.79953817793382
13.783561287356	0.79944600473106
13.739342713107	0.79935331329678
13.695406943810	0.79926011120756
13.651751275046	0.79916640597810
13.608373036768	0.79907220506132
13.565269592760	0.79897751584847
13.522438340099	0.79888234566922
13.479876708633	0.79878670179183
13.437582160466	0.79869059142321
13.395552189455	0.79859402170913
13.353784320713	0.79849699973428
13.312276110124	0.79839953252249
13.271025143869	0.79830162703679
13.230029037952	0.79820329017964
13.189285437747	0.79810452879304
13.148792017544	0.79800534965873
13.108546480105	0.79790575949831
13.068546556234	0.79780576497344
13.028790004346	0.79770537268604
12.989274610052	0.79760458917842
12.949998185745	0.79750342093349
12.910958570198	0.79740187437496
12.872153628167	0.79729995586753
12.833581250000	0.79719767171707
12.795239351259	0.79709502817085
12.757125872340	0.79699203141772
12.719238778108	0.79688868758835
12.681576057530	0.79678500275543
12.644135723323	0.79668098293388
12.606915811606	0.79657663408110
12.569914381551	0.79647196209716
12.533129515050	0.79636697282507
12.496559316382	0.79626167205099
12.460201911887	0.79615606550446
12.424055449648	0.79605015885868
12.388118099174	0.79594395773073
12.352388051092	0.79583746768179
12.316863516845	0.79573069421745
12.281542728390	0.79562364278793
12.246423937908	0.79551631878832
12.211505417515	0.79540872755891
12.176785458976	0.79530087438538
12.142262373431	0.79519276449910
12.107934491115	0.79508440307740
12.073800161095	0.79497579524385
12.039857751004	0.79486694606852
12.006105646776	0.79475786056827
11.972542252396	0.79464854370702
11.939165989646	0.79453900039604
11.905975297855	0.79442923549425
11.872968633663	0.79431925380850
11.840144470774	0.79420906009384
11.807501299724	0.79409865905384
11.775037627651	0.79398805534089
11.742751978065	0.79387725355648
11.710642890625	0.79376625825149
11.678708920919	0.79365507392655
11.646948640249	0.79354370503227
11.615360635413	0.79343215596959
11.583943508501	0.79332043109010
11.552695876686	0.79320853469630
11.521616372022	0.79309647104196
11.490703641242	0.79298424433242
11.459956345566	0.79287185872491
11.429373160503	0.79275931832884
11.398952775665	0.79264662720616
11.368693894577	0.79253378937163
11.338595234493	0.79242080879322
11.308655526217	0.79230768939235
11.278873513920	0.79219443504427
11.249247954972	0.79208104957834
11.219777619760	0.79196753677842
11.190461291527	0.79185390038314
11.161297766195	0.79174014408626
11.132285852209	0.79162627153701
11.103424370370	0.79151228634037
11.074712153676	0.79139819205748
11.046148047163	0.79128399220590
11.017730907755	0.79116969026000
10.989459604106	0.79105528965127
10.961333016453	0.79094079376865
10.933350036470	0.79082620595889
10.905509567115	0.79071152952687
10.877810522496	0.79059676773595
10.850251827723	0.79048192380829
10.822832418773	0.79036700092522
10.795551242348	0.79025200222756
10.768407255747	0.79013693081596
10.741399426729	0.79002178975125
10.714526733381	0.78990658205477
10.687788163993	0.78979131070874
10.661182716927	0.78967597865656
10.634709400497	0.78956058880319
10.608367232838	0.78944514401547
10.582155241793	0.78932964712247
10.556072464789	0.78921410091585
10.530117948718	0.78909850815015
10.504290749825	0.78898287154322
10.478589933590	0.78886719377647
10.453014574616	0.78875147749527
10.427563756522	0.78863572530930
10.402236571825	0.78851993979285
10.377032121841	0.78840412348518
10.351949516575	0.78828827889089
10.326987874612	0.78817240848022
10.302146323024	0.78805651468944
10.277423997257	0.78794059992112
10.252820041040	0.78782466654456
10.228333606278	0.78770871689607
10.203963852961	0.78759275327931
10.179709949066	0.78747677796568
10.155571070461	0.78736079319460
10.131546400811	0.78724480117389
10.107635131490	0.78712880408009
10.083836461487	0.78701280405882
10.060149597315	0.78689680322506
10.036573752929	0.78678080366358
10.013108149633	0.78666480742918
9.9897520159947	0.78654881654709
9.9665045877660	0.78643283301328
9.9433651077944	0.78631685879480
9.9203328259431	0.78620089583009
9.8974069990096	0.78608494602937
9.8745868906456	0.78596901127491
9.8518717712783	0.78585309342137
9.8292609180328	0.78573719429617
9.8067536146549	0.78562131569978
9.7843491514360	0.78550545940606
9.7620468251384	0.78538962716259
9.7398459389214	0.78527382069099
9.7177458022690	0.78515804168723
9.6957457309185	0.78504229182199
9.6738450467893	0.78492657274096
9.6520430779137	0.78481088606515
9.6303391583681	0.78469523339122
9.6087326282051	0.78457961629182
9.5872228333866	0.78446403631586
9.5658091257179	0.78434849498888
9.5444908627826	0.78423299381332
9.5232674078780	0.78411753426887
9.5021381299525	0.78400211781273
9.4811024035421	0.78388674588000
9.4601596087094	0.78377141988392
9.4393091309824	0.78365614121620
9.4185503612944	0.78354091124734
9.3978826959248	0.78342573132691
9.3773055364404	0.78331060278389
9.3568182896380	0.78319552692694
9.3364203674868	0.78308050504471
9.3161111870727	0.78296553840613
9.2958901705426	0.78285062826075
9.2757567450495	0.78273577583898
9.2557103426984	0.78262098235241
9.2357504004929	0.78250624899412
9.2158763602828	0.78239157693894
9.1960876687117	0.78227696734375
9.1763837771656	0.78216242134779
9.1567641417227	0.78204794007292
9.1372282231027	0.78193352462391
9.1177754866180	0.78181917608874
9.0984054021244	0.78170489553885
9.0791174439733	0.78159068402945
9.0599110909640	0.78147654259978
9.0407858262967	0.78136247227341
9.0217411375263	0.78124847405847
9.0027765165165	0.78113454894798
8.9838914593947	0.78102069792007
8.9650854665072	0.78090692193827
8.9463580423754	0.78079322195179
8.9277086956522	0.78067959889576
8.9091369390788	0.78056605369152
8.8906422894425	0.78045258724686
8.8722242675348	0.78033920045628
8.8538823981099	0.78022589420127
8.8356162098438	0.78011266935055
8.8174252352941	0.77999952676033
8.7993090108600	0.77988646727453
8.7812670767428	0.77977349172511
8.7632989769073	0.77966060093222
8.7454042590432	0.77954779570452
8.7275824745269	0.77943507683939
8.7098331783847	0.77932244512318
8.6921559292549	0.77920990133147
8.6745502893519	0.77909744622925
8.6570158244297	0.77898508057125
8.6395521037464	0.77887280510207
8.6221587000288	0.77876062055650
8.6048351894374	0.77864852765970
8.5875811515325	0.77853652712744
8.5703961692396	0.77842461966635
8.5532798288160	0.77831280597410
8.5362317198178	0.77820108673966
8.5192514350668	0.77808946264349
8.5023385706183	0.77797793435782
8.4854927257288	0.77786650254676
8.4687135028249	0.77775516786663
8.4520005074711	0.77764393096609
8.4353533483399	0.77753279248639
8.4187716371806	0.77742175306155
8.4022549887892	0.77731081331860
8.3858030209790	0.77719997387776
8.3694153545505	0.77708923535265
8.3530916132627	0.77697859835049
8.3368314238042	0.77686806347229
8.3206344157646	0.77675763131305
8.3045002216066	0.77664730246195
8.2884284766381	0.77653707750257
8.2724188189845	0.77642695701302
8.2564708895621	0.77631694156619
8.2405843320506	0.77620703172990
8.2247587928669	0.77609722806707
8.2089939211391	0.77598753113595
8.1932893686800	0.77587794149026
8.1776447899618	0.77576845967935
8.1620598420909	0.77565908624843
8.1465341847826	0.77554982173871
8.1310674803363	0.77544066668757
8.1156593936113	0.77533162162870
8.1003095920022	0.77522268709235
8.0850177454153	0.77511386360540
8.0697835262450	0.77500515169158
8.0546066093498	0.77489655187160
8.0394866720300	0.77478806466334
8.0244233940043	0.77467969058195
8.0094164573871	0.77457143014007
7.9944655466667	0.77446328384794
7.9795703486825	0.77435525221355
7.9647305526036	0.77424733574281
7.9499458499072	0.77413953493966
7.9352159343568	0.77403185030625
7.9205405019815	0.77392428234306
7.9059192510549	0.77381683154903
7.8913518820742	0.77370949842174
7.8768380977404	0.77360228345748
7.8623776029373	0.77349518715142
7.8479701047120	0.77338820999777
7.8336153122550	0.77328135248983
7.8193129368805	0.77317461512018
7.8050626920073	0.77306799838080
7.7908642931393	0.77296150276316
7.7767174578470	0.77285512875835
7.7626219057483	0.77274887685721
7.7485773584906	0.77264274755047
7.7345835397317	0.77253674132879
7.7206401751223	0.77243085868295
7.7067469922879	0.77232510010391
7.6929037208109	0.77221946608295
7.6791100922131	0.77211395711173
7.6653658399386	0.77200857368247
7.6516706993364	0.77190331628796
7.6380244076433	0.77179818542175
7.6244267039674	0.77169318157818
7.6108773292714	0.77158830525249
7.5973760263558	0.77148355694095
7.5839225398432	0.77137893714092
7.5705166161616	0.77127444635093
7.5571580035291	0.77117008507081
7.5438464519376	0.77106585380172
7.5305817131374	0.77096175304631
7.5173635406219	0.77085778330871
7.5041916896120	0.77075394509469
7.4910659170415	0.77065023891170
7.4779859815415	0.77054666526894
7.4649516434263	0.77044322467747
7.4519626646781	0.77033991765024
7.4390188089330	0.77023674470221
7.4261198414664	0.77013370635037
7.4132655291790	0.77003080311382
7.4004556405826	0.76992803551388
7.3876899457861	0.76982540407408
7.3749682164822	0.76972290932030
7.3622902259332	0.76962055178075
7.3496557489581	0.76951833198609
7.3370645619187	0.76941625046948
7.3245164427071	0.76931430776658
7.3120111707317	0.76921250441569
7.2995485269053	0.76911084095772
7.2871282936315	0.76900931793628
7.2747502547925	0.76890793589774
7.2624141957364	0.76880669539124
7.2501199032648	0.76870559696876
7.2378671656205	0.76860464118514
7.2256557724753	0.76850382859817
7.2134855149182	0.76840315976855
7.2013561854432	0.76830263526002
7.1892675779376	0.76820225563930
7.1772194876706	0.76810202147621
7.1652117112811	0.76800193334366
7.1532440467669	0.76790199181767
7.1413162934731	0.76780219747744
7.1294282520809	0.76770255090532
7.1175797245964	0.76760305268691
7.1057705143399	0.76750370341102
7.0940004259347	0.76740450366973
7.0822692652965	0.76730545405840
7.0705768396226	0.76720655517567
7.0589229573817	0.76710780762353
7.0473074283028	0.76700921200728
7.0357300633654	0.76691076893560
7.0241906747891	0.76681247902050
7.0126890760234	0.76671434287740
7.0012250817375	0.76661636112509
6.9897985078107	0.76651853438578
6.9784091713222	0.76642086328506
6.9670568905415	0.76632334845195
6.9557414849188	0.76622599051891
6.9444627750753	0.76612879012178
6.9332205827937	0.76603174789986
6.9220147310090	0.76593486449587
6.9108450437990	0.76583814055597
6.8997113463751	0.76574157672972
6.8886134650735	0.76564517367014
6.8775512273457	0.76554893203364
6.8665244617499	0.76545285248007
6.8555329979419	0.76535693567267
6.8445766666667	0.76526118227809
6.8336552997493	0.76516559296639
6.8227687300865	0.76507016841098
6.8119167916383	0.76497490928867
6.8010993194192	0.76487981627961
6.7903161494904	0.76478489006731
6.7795671189507	0.76469013133859
6.7688520659291	0.76459554078361
6.7581708295762	0.76450111909582
6.7475232500563	0.76440686697192
6.7369091685393	0.76431278511191
6.7263284271932	0.76421887421900
6.7157808691756	0.76412513499962
6.7052663386267	0.76403156816342
6.6947846806610	0.76393817442319
6.6843357413601	0.76384495449486
6.6739193677649	0.76375190909752
6.6635354078684	0.76365903895330
6.6531837106081	0.76356634478744
6.6428641258586	0.76347382732819
6.6325765044248	0.76338148730681
6.6223206980340	0.76328932545753
6.6120965593295	0.76319734251754
6.6019039418630	0.76310553922692
6.5917427000879	0.76301391632863
6.5816126893524	0.76292247456849
6.5715137658922	0.76283121469510
6.5614457868243	0.76274013745986
6.5514086101399	0.76264924361687
6.5414020946978	0.76255853392294
6.5314261002179	0.76246800913755
6.5214804872743	0.76237767002278
6.5115651172893	0.76228751734328
6.5016798525266	0.76219755186625
6.4918245560849	0.76210777436138
6.4819990918919	0.76201818560081
6.4722033246978	0.76192878635908
6.4624371200690	0.76183957741309
6.4527003443823	0.76175055954208
6.4429928648184	0.76166173352754
6.4333145493562	0.76157310015318
6.4236652667667	0.76148466020491
6.4140448866068	0.76139641447077
6.4044532792138	0.76130836374087
6.3948903156997	0.76122050880735
6.3853558679446	0.76113285046436
6.3758498085921	0.76104538950796
6.3663720110427	0.76095812673610
6.3569223494487	0.76087106294857
6.3475006987084	0.76078419894694
6.3381069344609	0.76069753553451
6.3287409330800	0.76061107351624
6.3194025716695	0.76052481369873
6.3100917280572	0.76043875689015
6.3008082807902	0.76035290390018
6.2915521091291	0.76026725553996
6.2823230930427	0.76018181262202
6.2731211132036	0.76009657596028
6.2639460509820	0.76001154636991
6.2547977884415	0.75992672466735
6.2456762083333	0.75984211167019
6.2365811940919	0.75975770819718
6.2275126298297	0.75967351506809
6.2184704003319	0.75958953310374
6.2094543910522	0.75950576312589
6.2004644881075	0.75942220595716
6.1915005782734	0.75933886242105
6.1825625489792	0.75925573334180
6.1736502883031	0.75917281954437
6.1647636849681	0.75909012185439
6.1559026283368	0.75900764109806
6.1470670084068	0.75892537810212
6.1382567158067	0.75884333369381
6.1294716417910	0.75876150870076
6.1207116782360	0.75867990395094
6.1119767176351	0.75859852027263
6.1032666530945	0.75851735849435
6.0945813783289	0.75843641944477
6.0859207876573	0.75835570395268
6.0772847759984	0.75827521284689
6.0686732388664	0.75819494695624
6.0600860723671	0.75811490710944
6.0515231731934	0.75803509413511
6.0429844386212	0.75795550886163
6.0344697665056	0.75787615211714
6.0259790552764	0.75779702472945
6.0175122039342	0.75771812752597
6.0090691120465	0.75763946133368
6.0006496797438	0.75756102697902
5.9922538077154	0.75748282528789
5.9838813972056	0.75740485708553
5.9755323500100	0.75732712319649
5.9672065684713	0.75724962444456
5.9589039554760	0.75717236165270
5.9506244144502	0.75709533564299
5.9423678493558	0.75701854723657
5.9341341646873	0.75694199725356
5.9259232654675	0.75686568651301
5.9177350572444	0.75678961583285
5.9095694460871	0.75671378602981
5.9014263385827	0.75663819791936
5.8933056418321	0.75656285231565
5.8852072634472	0.75648775003148
5.8771311115468	0.75641289187817
5.8690770947533	0.75633827866558
5.8610451221896	0.75626391120198
5.8530351034752	0.75618979029403
5.8450469487229	0.75611591674672
5.8370805685358	0.75604229136328
5.8291358740035	0.75596891494516
5.8212127766990	0.75589578829193
5.8133111886756	0.75582291220126
5.8054310224632	0.75575028746882
5.7975721910656	0.75567791488826
5.7897346079567	0.75560579525112
5.7819181870781	0.75553392934680
5.7741228428351	0.75546231796249
5.7663484900942	0.75539096188308
5.7585950441798	0.75531986189117
5.7508624208709	0.75524901876696
5.7431505363985	0.75517843328821
5.7354593074421	0.75510810623017
5.7277886511272	0.75503803836556
5.7201384850219	0.75496823046448
5.7125087271341	0.75489868329436
5.7048992959087	0.75482939761993
5.6973101102242	0.75476037420312
5.6897410893908	0.75469161380306
5.6821921531463	0.75462311717598
5.6746632216544	0.75455488507517
5.6671542155009	0.75448691825097
5.6596650556919	0.75441921745063
5.6521956636501	0.75435178341836
5.6447459612126	0.75428461689517
5.6373158706281	0.75421771861893
5.6299053145540	0.75415108932424
5.6225142160540	0.75408472974240
5.6151424985952	0.75401864060138
5.6077900860456	0.75395282262574
5.6004569026714	0.75388727653662
5.5931428731343	0.75382200305166
5.5858479224893	0.75375700288495
5.5785719761816	0.75369227674701
5.5713149600446	0.75362782534473
5.5640768002970	0.75356364938130
5.5568574235403	0.75349974955623
5.5496567567568	0.75343612656521
5.5424747273063	0.75337278110016
5.5353112629247	0.75330971384912
5.5281662917204	0.75324692549625
5.5210397421731	0.75318441672174
5.5139315431304	0.75312218820183
5.5068416238060	0.75306024060870
5.4997699137773	0.75299857461048
5.4927163429828	0.75293719087121
5.4856808417200	0.75287609005074
5.4786633406433	0.75281527280478
5.4716637707611	0.75275473978479
5.4646820634342	0.75269449163797
5.4577181503732	0.75263452900723
5.4507719636364	0.75257485253112
5.4438434356274	0.75251546284385
5.4369324990932	0.75245636057520
5.4300390871219	0.75239754635052
5.4231631331404	0.75233902079066
5.4163045709124	0.75228078451200
5.4094633345363	0.75222283812634
5.4026393584430	0.75216518224092
5.3958325773938	0.75210781745837
5.3890429264785	0.75205074437670
5.3822703411131	0.75199396358922
5.3755147570378	0.75193747568456
5.3687761103152	0.75188128124664
5.3620543373278	0.75182538085460
5.3553493747767	0.75176977508282
5.3486611596789	0.75171446450085
5.3419896293656	0.75165944967342
5.3353347214807	0.75160473116040
5.3286963739780	0.75155030951678
5.3220745251198	0.75149618529263
5.3154691134752	0.75144235903310
5.3088800779175	0.75138883127838
5.3023073576229	0.75133560256369
5.2957508920685	0.75128267341925
5.2892106210303	0.75123004437026
5.2826864845815	0.75117771593690
5.2761784230905	0.75112568863426
5.2696863772192	0.75107396297240
5.2632102879213	0.75102253945625
5.2567500964405	0.75097141858566
5.2503057443082	0.75092060085534
5.2438771733427	0.75087008675488
5.2374643256464	0.75081987676868
5.2310671436050	0.75076997137602
5.2246855698850	0.75072037105095
5.2183195474326	0.75067107626236
5.2119690194715	0.75062208747394
5.2056339295016	0.75057340514413
5.1993142212973	0.75052502972617
5.1930098389052	0.75047696166806
5.1867207266436	0.75042920141256
5.1804468290997	0.75038174939717
5.1741880911288	0.75033460605413
5.1679444578521	0.75028777181042
5.1617158746556	0.75024124708774
5.1555022871883	0.75019503230253
5.1493036413604	0.75014912786592
5.1431198833419	0.75010353418379
5.1369509595613	0.75005825165671
5.1307968167037	0.75001328067996
5.1246574017094	0.74996862164354
5.1185326617722	0.74992427493215
5.1124225443383	0.74988024092520
5.1063269971044	0.74983651999682
5.1002459680163	0.74979311251583
5.0941794052676	0.74975001884577
5.0881272572980	0.74970723934492
5.0820894727920	0.74966477436624
5.0760660006773	0.74962262425743
5.0700567901235	0.74958078936094
5.0640617905405	0.74953927001392
5.0580809515775	0.74949806654829
5.0521142231210	0.74945717929071
5.0461615552937	0.74941660856258
5.0402228984533	0.74937635468009
5.0342982031906	0.74933641795418
5.0283874203287	0.74929679869061
5.0224905009214	0.74925749718990
5.0166073962517	0.74921851374739
5.0107380578305	0.74917984865325
5.0048824373957	0.74914150219247
4.9990404869101	0.74910347464488
4.9932121585610	0.74906576628520
4.9873974047579	0.74902837738298
4.9815961781323	0.74899130820269
4.9758084315353	0.74895455900371
4.9700341180371	0.74891813004033
4.9642731909256	0.74888202156178
4.9585256037049	0.74884623381226
4.9527913100942	0.74881076703094
4.9470702640264	0.74877562145200
4.9413624196473	0.74874079730462
4.9356677313138	0.74870629481302
4.9299861535932	0.74867211419651
4.9243176412615	0.74863825566945
4.9186621493027	0.74860471944132
4.9130196329072	0.74857150571671
4.9073900474709	0.74853861469540
4.9017733485939	0.74850604657232
4.8961694920790	0.74847380153759
4.8905784339315	0.74844187977660
4.8850001303569	0.74841028146996
4.8794345377604	0.74837900679357
4.8738816127459	0.74834805591865
4.8683413121143	0.74831742901173
4.8628135928629	0.74828712623475
4.8572984121841	0.74825714774501
4.8517957274640	0.74822749369525
4.8463054962819	0.74819816423366
4.8408276764088	0.74816915950391
4.8353622258065	0.74814047964522
