#Parameters = {thARC=0.6; nARC=2.75; thsub=1; p=1; nSub=2.5}
#"Wavelength / um"	"T (370) [Real Part]"
#---------------------------------------
14.989622900000	0.78657929706370
14.937342202292	0.78645093630110
14.885424925521	0.78632132409906
14.833867293419	0.78619048202769
14.782665581854	0.78605843153796
14.731816117936	0.78592519396073
14.681315279138	0.78579079050583
14.631159492435	0.78565524226118
14.581345233463	0.78551857019195
14.531869025691	0.78538079513969
14.482727439614	0.78524193782157
14.433917091960	0.78510201882957
14.385434644914	0.78496105862974
14.337276805356	0.78481907756148
14.289440324118	0.78467609583686
14.241921995249	0.78453213353993
14.194718655303	0.78438721062608
14.147827182633	0.78424134692144
14.101244496707	0.78409456212225
14.054967557431	0.78394687579436
14.008993364486	0.78379830737263
13.963318956684	0.78364887616044
13.917941411328	0.78349860132921
13.872857843591	0.78334750191790
13.828065405904	0.78319559683263
13.783561287356	0.78304290484620
13.739342713107	0.78288944459774
13.695406943810	0.78273523459231
13.651751275046	0.78258029320059
13.608373036768	0.78242463865854
13.565269592760	0.78226828906708
13.522438340099	0.78211126239187
13.479876708633	0.78195357646299
13.437582160466	0.78179524897475
13.395552189455	0.78163629748547
13.353784320713	0.78147673941731
13.312276110124	0.78131659205605
13.271025143869	0.78115587255101
13.230029037952	0.78099459791489
13.189285437747	0.78083278502366
13.148792017544	0.78067045061651
13.108546480105	0.78050761129574
13.068546556234	0.78034428352677
13.028790004346	0.78018048363808
12.989274610052	0.78001622782119
12.949998185745	0.77985153213073
12.910958570198	0.77968641248444
12.872153628167	0.77952088466321
12.833581250000	0.77935496431117
12.795239351259	0.77918866693579
12.757125872340	0.77902200790793
12.719238778108	0.77885500246205
12.681576057530	0.77868766569629
12.644135723323	0.77852001257261
12.606915811606	0.77835205791705
12.569914381551	0.77818381641983
12.533129515050	0.77801530263562
12.496559316382	0.77784653098371
12.460201911887	0.77767751574832
12.424055449648	0.77750827107877
12.388118099174	0.77733881098982
12.352388051092	0.77716914936194
12.316863516845	0.77699929994155
12.281542728390	0.77682927634142
12.246423937908	0.77665909204095
12.211505417515	0.77648876038653
12.176785458976	0.77631829459185
12.142262373431	0.77614770773836
12.107934491115	0.77597701277555
12.073800161095	0.77580622252143
12.039857751004	0.77563534966287
12.006105646776	0.77546440675606
11.972542252396	0.77529340622697
11.939165989646	0.77512236037170
11.905975297855	0.77495128135703
11.872968633663	0.77478018122086
11.840144470774	0.77460907187266
11.807501299724	0.77443796509399
11.775037627651	0.77426687253899
11.742751978065	0.77409580573492
11.710642890625	0.77392477608261
11.678708920919	0.77375379485708
11.646948640249	0.77358287320803
11.615360635413	0.77341202216038
11.583943508501	0.77324125261487
11.552695876686	0.77307057534862
11.521616372022	0.77290000101569
11.490703641242	0.77272954014768
11.459956345566	0.77255920315433
11.429373160503	0.77238900032412
11.398952775665	0.77221894182489
11.368693894577	0.77204903770444
11.338595234493	0.77187929789119
11.308655526217	0.77170973219478
11.278873513920	0.77154035030675
11.249247954972	0.77137116180117
11.219777619760	0.77120217613529
11.190461291527	0.77103340265023
11.161297766195	0.77086485057163
11.132285852209	0.77069652901032
11.103424370370	0.77052844696303
11.074712153676	0.77036061331306
11.046148047163	0.77019303683098
11.017730907755	0.77002572617532
10.989459604106	0.76985868989330
10.961333016453	0.76969193642152
10.933350036470	0.76952547408666
10.905509567115	0.76935931110625
10.877810522496	0.76919345558935
10.850251827723	0.76902791553731
10.822832418773	0.76886269884448
10.795551242348	0.76869781329896
10.768407255747	0.76853326658334
10.741399426729	0.76836906627544
10.714526733381	0.76820521984907
10.687788163993	0.76804173467479
10.661182716927	0.76787861802064
10.634709400497	0.76771587705291
10.608367232838	0.76755351883692
10.582155241793	0.76739155033775
10.556072464789	0.76722997842106
10.530117948718	0.76706880985378
10.504290749825	0.76690805130499
10.478589933590	0.76674770934658
10.453014574616	0.76658779045411
10.427563756522	0.76642830100756
10.402236571825	0.76626924729211
10.377032121841	0.76611063549891
10.351949516575	0.76595247172589
10.326987874612	0.76579476197852
10.302146323024	0.76563751217063
10.277423997257	0.76548072812515
10.252820041040	0.76532441557492
10.228333606278	0.76516858016350
10.203963852961	0.76501322744593
10.179709949066	0.76485836288953
10.155571070461	0.76470399187470
10.131546400811	0.76455011969569
10.107635131490	0.76439675156141
10.083836461487	0.76424389259622
10.060149597315	0.76409154784070
10.036573752929	0.76393972225246
10.013108149633	0.76378842070694
9.9897520159947	0.76363764799819
9.9665045877660	0.76348740883962
9.9433651077944	0.76333770786487
9.9203328259431	0.76318854962853
9.8974069990096	0.76303993860696
9.8745868906456	0.76289187919906
9.8518717712783	0.76274437572708
9.8292609180328	0.76259743243738
9.8067536146549	0.76245105350121
9.7843491514360	0.76230524301553
9.7620468251384	0.76216000500374
9.7398459389214	0.76201534341650
9.7177458022690	0.76187126213249
9.6957457309185	0.76172776495917
9.6738450467893	0.76158485563359
9.6520430779137	0.76144253782313
9.6303391583681	0.76130081512630
9.6087326282051	0.76115969107346
9.5872228333866	0.76101916912766
9.5658091257179	0.76087925268533
9.5444908627826	0.76073994507706
9.5232674078780	0.76060124956842
9.5021381299525	0.76046316936061
9.4811024035421	0.76032570759132
9.4601596087094	0.76018886733541
9.4393091309824	0.76005265160567
9.4185503612944	0.75991706335361
9.3978826959248	0.75978210547015
9.3773055364404	0.75964778078638
9.3568182896380	0.75951409207431
9.3364203674868	0.75938104204759
9.3161111870727	0.75924863336224
9.2958901705426	0.75911686861739
9.2757567450495	0.75898575035599
9.2557103426984	0.75885528106555
9.2357504004929	0.75872546317883
9.2158763602828	0.75859629907460
9.1960876687117	0.75846779107830
9.1763837771656	0.75833994146278
9.1567641417227	0.75821275244901
9.1372282231027	0.75808622620674
9.1177754866180	0.75796036485524
9.0984054021244	0.75783517046399
9.0791174439733	0.75771064505334
9.0599110909640	0.75758679059522
9.0407858262967	0.75746360901382
9.0217411375263	0.75734110218625
9.0027765165165	0.75721927194324
8.9838914593947	0.75709812006980
8.9650854665072	0.75697764830587
8.9463580423754	0.75685785834701
8.9277086956522	0.75673875184504
8.9091369390788	0.75662033040868
8.8906422894425	0.75650259560424
8.8722242675348	0.75638554895624
8.8538823981099	0.75626919194804
8.8356162098438	0.75615352602250
8.8174252352941	0.75603855258259
8.7993090108600	0.75592427299203
8.7812670767428	0.75581068857594
8.7632989769073	0.75569780062139
8.7454042590432	0.75558561037809
8.7275824745269	0.75547411905894
8.7098331783847	0.75536332784068
8.6921559292549	0.75525323786447
8.6745502893519	0.75514385023648
8.6570158244297	0.75503516602850
8.6395521037464	0.75492718627849
8.6221587000288	0.75481991199123
8.6048351894374	0.75471334413883
8.5875811515325	0.75460748366133
8.5703961692396	0.75450233146727
8.5532798288160	0.75439788843426
8.5362317198178	0.75429415540951
8.5192514350668	0.75419113321042
8.5023385706183	0.75408882262510
8.4854927257288	0.75398722441292
8.4687135028249	0.75388633930507
8.4520005074711	0.75378616800506
8.4353533483399	0.75368671118928
8.4187716371806	0.75358796950751
8.4022549887892	0.75348994358343
8.3858030209790	0.75339263401516
8.3694153545505	0.75329604137574
8.3530916132627	0.75320016621366
8.3368314238042	0.75310500905334
8.3206344157646	0.75301057039563
8.3045002216066	0.75291685071831
8.2884284766381	0.75282385047657
8.2724188189845	0.75273157010348
8.2564708895621	0.75264001001047
8.2405843320506	0.75254917058779
8.2247587928669	0.75245905220500
8.2089939211391	0.75236965521140
8.1932893686800	0.75228097993651
8.1776447899618	0.75219302669049
8.1620598420909	0.75210579576462
8.1465341847826	0.75201928743169
8.1310674803363	0.75193350194649
8.1156593936113	0.75184843954620
8.1003095920022	0.75176410045082
8.0850177454153	0.75168048486361
8.0697835262450	0.75159759297147
8.0546066093498	0.75151542494536
8.0394866720300	0.75143398094073
8.0244233940043	0.75135326109789
8.0094164573871	0.75127326554240
7.9944655466667	0.75119399438547
7.9795703486825	0.75111544772435
7.9647305526036	0.75103762564270
7.9499458499072	0.75096052821094
7.9352159343568	0.75088415548666
7.9205405019815	0.75080850751496
7.9059192510549	0.75073358432880
7.8913518820742	0.75065938594936
7.8768380977404	0.75058591238642
7.8623776029373	0.75051316363863
7.8479701047120	0.75044113969391
7.8336153122550	0.75036984052976
7.8193129368805	0.75029926611360
7.8050626920073	0.75022941640306
7.7908642931393	0.75016029134633
7.7767174578470	0.75009189088247
7.7626219057483	0.75002421494169
7.7485773584906	0.74995726344570
7.7345835397317	0.74989103630794
7.7206401751223	0.74982553343394
7.7067469922879	0.74976075472157
7.6929037208109	0.74969670006135
7.6791100922131	0.74963336933667
7.6653658399386	0.74957076242414
7.6516706993364	0.74950887919379
7.6380244076433	0.74944771950940
7.6244267039674	0.74938728322869
7.6108773292714	0.74932757020363
7.5973760263558	0.74926858028064
7.5839225398432	0.74921031330087
7.5705166161616	0.74915276910043
7.5571580035291	0.74909594751062
7.5438464519376	0.74903984835816
7.5305817131374	0.74898447146542
7.5173635406219	0.74892981665063
7.5041916896120	0.74887588372810
7.4910659170415	0.74882267250844
7.4779859815415	0.74877018279875
7.4649516434263	0.74871841440283
7.4519626646781	0.74866736712139
7.4390188089330	0.74861704075221
7.4261198414664	0.74856743509036
7.4132655291790	0.74851854992836
7.4004556405826	0.74847038505636
7.3876899457861	0.74842294026236
7.3749682164822	0.74837621533229
7.3622902259332	0.74833021005025
7.3496557489581	0.74828492419866
7.3370645619187	0.74824035755838
7.3245164427071	0.74819650990890
7.3120111707317	0.74815338102845
7.2995485269053	0.74811097069419
7.2871282936315	0.74806927868230
7.2747502547925	0.74802830476816
7.2624141957364	0.74798804872644
7.2501199032648	0.74794851033124
7.2378671656205	0.74790968935624
7.2256557724753	0.74787158557477
7.2134855149182	0.74783419875993
7.2013561854432	0.74779752868475
7.1892675779376	0.74776157512224
7.1772194876706	0.74772633784549
7.1652117112811	0.74769181662782
7.1532440467669	0.74765801124281
7.1413162934731	0.74762492146443
7.1294282520809	0.74759254706711
7.1175797245964	0.74756088782580
7.1057705143399	0.74752994351610
7.0940004259347	0.74749971391428
7.0822692652965	0.74747019879736
7.0705768396226	0.74744139794320
7.0589229573817	0.74741331113054
7.0473074283028	0.74738593813905
7.0357300633654	0.74735927874941
7.0241906747891	0.74733333274333
7.0126890760234	0.74730809990361
7.0012250817375	0.74728358001419
6.9897985078107	0.74725977286017
6.9784091713222	0.74723667822787
6.9670568905415	0.74721429590482
6.9557414849188	0.74719262567983
6.9444627750753	0.74717166734300
6.9332205827937	0.74715142068573
6.9220147310090	0.74713188550075
6.9108450437990	0.74711306158212
6.8997113463751	0.74709494872526
6.8886134650735	0.74707754672694
6.8775512273457	0.74706085538528
6.8665244617499	0.74704487449976
6.8555329979419	0.74702960387124
6.8445766666667	0.74701504330189
6.8336552997493	0.74700119259525
6.8227687300865	0.74698805155618
6.8119167916383	0.74697561999083
6.8010993194192	0.74696389770667
6.7903161494904	0.74695288451241
6.7795671189507	0.74694258021802
6.7688520659291	0.74693298463469
6.7581708295762	0.74692409757477
6.7475232500563	0.74691591885177
6.7369091685393	0.74690844828033
6.7263284271932	0.74690168567613
6.7157808691756	0.74689563085589
6.7052663386267	0.74689028363732
6.6947846806610	0.74688564383904
6.6843357413601	0.74688171128057
6.6739193677649	0.74687848578225
6.6635354078684	0.74687596716520
6.6531837106081	0.74687415525122
6.6428641258586	0.74687304986280
6.6325765044248	0.74687265082297
6.6223206980340	0.74687295795530
6.6120965593295	0.74687397108380
6.6019039418630	0.74687569003284
6.5917427000879	0.74687811462711
6.5816126893524	0.74688124469150
6.5715137658922	0.74688508005105
6.5614457868243	0.74688962053084
6.5514086101399	0.74689486595595
6.5414020946978	0.74690081615132
6.5314261002179	0.74690747094170
6.5214804872743	0.74691483015154
6.5115651172893	0.74692289360491
6.5016798525266	0.74693166112539
6.4918245560849	0.74694113253598
6.4819990918919	0.74695130765900
6.4722033246978	0.74696218631597
6.4624371200690	0.74697376832754
6.4527003443823	0.74698605351337
6.4429928648184	0.74699904169200
6.4333145493562	0.74701273268078
6.4236652667667	0.74702712629572
6.4140448866068	0.74704222235141
6.4044532792138	0.74705802066086
6.3948903156997	0.74707452103545
6.3853558679446	0.74709172328475
6.3758498085921	0.74710962721641
6.3663720110427	0.74712823263609
6.3569223494487	0.74714753934725
6.3475006987084	0.74716754715110
6.3381069344609	0.74718825584644
6.3287409330800	0.74720966522953
6.3194025716695	0.74723177509396
6.3100917280572	0.74725458523055
6.3008082807902	0.74727809542716
6.2915521091291	0.74730230546861
6.2823230930427	0.74732721513651
6.2731211132036	0.74735282420915
6.2639460509820	0.74737913246132
6.2547977884415	0.74740613966422
6.2456762083333	0.74743384558530
6.2365811940919	0.74746224998811
6.2275126298297	0.74749135263216
6.2184704003319	0.74752115327277
6.2094543910522	0.74755165166096
6.2004644881075	0.74758284754326
6.1915005782734	0.74761474066159
6.1825625489792	0.74764733075310
6.1736502883031	0.74768061755002
6.1647636849681	0.74771460077953
6.1559026283368	0.74774928016358
6.1470670084068	0.74778465541876
6.1382567158067	0.74782072625613
6.1294716417910	0.74785749238111
6.1207116782360	0.74789495349327
6.1119767176351	0.74793310928619
6.1032666530945	0.74797195944735
6.0945813783289	0.74801150365790
6.0859207876573	0.74805174159259
6.0772847759984	0.74809267291952
6.0686732388664	0.74813429730007
6.0600860723671	0.74817661438868
6.0515231731934	0.74821962383273
6.0429844386212	0.74826332527235
6.0344697665056	0.74830771834028
6.0259790552764	0.74835280266173
6.0175122039342	0.74839857785418
6.0090691120465	0.74844504352723
6.0006496797438	0.74849219928247
5.9922538077154	0.74854004471330
5.9838813972056	0.74858857940475
5.9755323500100	0.74863780293336
5.9672065684713	0.74868771486698
5.9589039554760	0.74873831476463
5.9506244144502	0.74878960217635
5.9423678493558	0.74884157664302
5.9341341646873	0.74889423769619
5.9259232654675	0.74894758485796
5.9177350572444	0.74900161764077
5.9095694460871	0.74905633554728
5.9014263385827	0.74911173807019
5.8933056418321	0.74916782469208
5.8852072634472	0.74922459488526
5.8771311115468	0.74928204811160
5.8690770947533	0.74934018382237
5.8610451221896	0.74939900145809
5.8530351034752	0.74945850044837
5.8450469487229	0.74951868021175
5.8370805685358	0.74957954015553
5.8291358740035	0.74964107967564
5.8212127766990	0.74970329815644
5.8133111886756	0.74976619497063
5.8054310224632	0.74982976947901
5.7975721910656	0.74989402103040
5.7897346079567	0.74995894896144
5.7819181870781	0.75002455259646
5.7741228428351	0.75009083124731
5.7663484900942	0.75015778421320
5.7585950441798	0.75022541078057
5.7508624208709	0.75029371022295
5.7431505363985	0.75036268180077
5.7354593074421	0.75043232476121
5.7277886511272	0.75050263833811
5.7201384850219	0.75057362175175
5.7125087271341	0.75064527420875
5.7048992959087	0.75071759490190
5.6973101102242	0.75079058301003
5.6897410893908	0.75086423769784
5.6821921531463	0.75093855811580
5.6746632216544	0.75101354339996
5.6671542155009	0.75108919267184
5.6596650556919	0.75116550503826
5.6521956636501	0.75124247959126
5.6447459612126	0.75132011540789
5.6373158706281	0.75139841155010
5.6299053145540	0.75147736706463
5.6225142160540	0.75155698098284
5.6151424985952	0.75163725232059
5.6077900860456	0.75171818007812
5.6004569026714	0.75179976323988
5.5931428731343	0.75188200077447
5.5858479224893	0.75196489163442
5.5785719761816	0.75204843475615
5.5713149600446	0.75213262905978
5.5640768002970	0.75221747344905
5.5568574235403	0.75230296681116
5.5496567567568	0.75238910801668
5.5424747273063	0.75247589591942
5.5353112629247	0.75256332935629
5.5281662917204	0.75265140714723
5.5210397421731	0.75274012809503
5.5139315431304	0.75282949098529
5.5068416238060	0.75291949458625
5.4997699137773	0.75301013764870
5.4927163429828	0.75310141890586
5.4856808417200	0.75319333707332
5.4786633406433	0.75328589084884
5.4716637707611	0.75337907891236
5.4646820634342	0.75347289992579
5.4577181503732	0.75356735253301
5.4507719636364	0.75366243535968
5.4438434356274	0.75375814701321
5.4369324990932	0.75385448608261
5.4300390871219	0.75395145113846
5.4231631331404	0.75404904073276
5.4163045709124	0.75414725339887
5.4094633345363	0.75424608765140
5.4026393584430	0.75434554198618
5.3958325773938	0.75444561488009
5.3890429264785	0.75454630479104
5.3822703411131	0.75464761015789
5.3755147570378	0.75474952940032
5.3687761103152	0.75485206091882
5.3620543373278	0.75495520309457
5.3553493747767	0.75505895428936
5.3486611596789	0.75516331284558
5.3419896293656	0.75526827708609
5.3353347214807	0.75537384531417
5.3286963739780	0.75548001581347
5.3220745251198	0.75558678684795
5.3154691134752	0.75569415666179
5.3088800779175	0.75580212347937
5.3023073576229	0.75591068550517
5.2957508920685	0.75601984092377
5.2892106210303	0.75612958789976
5.2826864845815	0.75623992457769
5.2761784230905	0.75635084908205
5.2696863772192	0.75646235951720
5.2632102879213	0.75657445396735
5.2567500964405	0.75668713049649
5.2503057443082	0.75680038714838
5.2438771733427	0.75691422194648
5.2374643256464	0.75702863289397
5.2310671436050	0.75714361797366
5.2246855698850	0.75725917514801
5.2183195474326	0.75737530235905
5.2119690194715	0.75749199752843
5.2056339295016	0.75760925855731
5.1993142212973	0.75772708332640
5.1930098389052	0.75784546969594
5.1867207266436	0.75796441550565
5.1804468290997	0.75808391857475
5.1741880911288	0.75820397670193
5.1679444578521	0.75832458766536
5.1617158746556	0.75844574922266
5.1555022871883	0.75856745911091
5.1493036413604	0.75868971504666
5.1431198833419	0.75881251472592
5.1369509595613	0.75893585582414
5.1307968167037	0.75905973599627
5.1246574017094	0.75918415287673
5.1185326617722	0.75930910407940
5.1124225443383	0.75943458719771
5.1063269971044	0.75956059980456
5.1002459680163	0.75968713945243
5.0941794052676	0.75981420367334
5.0881272572980	0.75994178997887
5.0820894727920	0.76006989586023
5.0760660006773	0.76019851878825
5.0700567901235	0.76032765621344
5.0640617905405	0.76045730556598
5.0580809515775	0.76058746425582
5.0521142231210	0.76071812967264
5.0461615552937	0.76084929918595
5.0402228984533	0.76098097014511
5.0342982031906	0.76111313987937
5.0283874203287	0.76124580569795
5.0224905009214	0.76137896489002
5.0166073962517	0.76151261472484
5.0107380578305	0.76164675245174
5.0048824373957	0.76178137530025
4.9990404869101	0.76191648048006
4.9932121585610	0.76205206518120
4.9873974047579	0.76218812657400
4.9815961781323	0.76232466180924
4.9758084315353	0.76246166801815
4.9700341180371	0.76259914231254
4.9642731909256	0.76273708178483
4.9585256037049	0.76287548350815
4.9527913100942	0.76301434453643
4.9470702640264	0.76315366190443
4.9413624196473	0.76329343262790
4.9356677313138	0.76343365370361
4.9299861535932	0.76357432210943
4.9243176412615	0.76371543480449
4.9186621493027	0.76385698872920
4.9130196329072	0.76399898080539
4.9073900474709	0.76414140793637
4.9017733485939	0.76428426700708
4.8961694920790	0.76442755488416
4.8905784339315	0.76457126841605
4.8850001303569	0.76471540443312
4.8794345377604	0.76485995974776
4.8738816127459	0.76500493115452
4.8683413121143	0.76515031543019
4.8628135928629	0.76529610933393
4.8572984121841	0.76544230960739
4.8517957274640	0.76558891297485
4.8463054962819	0.76573591614331
4.8408276764088	0.76588331580263
4.8353622258065	0.76603110862567
