#Parameters = {thARC=0.6; nARC=1; thsub=1; p=1; nSub=2.75}
#"Wavelength / um"	"T (382) [Real Part]"
#---------------------------------------
14.989622900000	0.78222285092089
14.937342202292	0.78223437320886
14.885424925521	0.78224553407628
14.833867293419	0.78225633924372
14.782665581854	0.78226679438297
14.731816117936	0.78227690511711
14.681315279138	0.78228667702057
14.631159492435	0.78229611561920
14.581345233463	0.78230522639034
14.531869025691	0.78231401476290
14.482727439614	0.78232248611743
14.433917091960	0.78233064578623
14.385434644914	0.78233849905340
14.337276805356	0.78234605115496
14.289440324118	0.78235330727892
14.241921995249	0.78236027256541
14.194718655303	0.78236695210674
14.147827182633	0.78237335094754
14.101244496707	0.78237947408485
14.054967557431	0.78238532646822
14.008993364486	0.78239091299986
13.963318956684	0.78239623853472
13.917941411328	0.78240130788063
13.872857843591	0.78240612579842
13.828065405904	0.78241069700203
13.783561287356	0.78241502615868
13.739342713107	0.78241911788895
13.695406943810	0.78242297676697
13.651751275046	0.78242660732051
13.608373036768	0.78243001403114
13.565269592760	0.78243320133439
13.522438340099	0.78243617361988
13.479876708633	0.78243893523145
13.437582160466	0.78244149046736
13.395552189455	0.78244384358040
13.353784320713	0.78244599877808
13.312276110124	0.78244796022276
13.271025143869	0.78244973203183
13.230029037952	0.78245131827789
13.189285437747	0.78245272298886
13.148792017544	0.78245395014824
13.108546480105	0.78245500369518
13.068546556234	0.78245588752474
13.028790004346	0.78245660548801
12.989274610052	0.78245716139232
12.949998185745	0.78245755900140
12.910958570198	0.78245780203560
12.872153628167	0.78245789417201
12.833581250000	0.78245783904472
12.795239351259	0.78245764024494
12.757125872340	0.78245730132126
12.719238778108	0.78245682577978
12.681576057530	0.78245621708437
12.644135723323	0.78245547865678
12.606915811606	0.78245461387695
12.569914381551	0.78245362608308
12.533129515050	0.78245251857198
12.496559316382	0.78245129459913
12.460201911887	0.78244995737898
12.424055449648	0.78244851008514
12.388118099174	0.78244695585056
12.352388051092	0.78244529776778
12.316863516845	0.78244353888908
12.281542728390	0.78244168222679
12.246423937908	0.78243973075340
12.211505417515	0.78243768740186
12.176785458976	0.78243555506575
12.142262373431	0.78243333659953
12.107934491115	0.78243103481871
12.073800161095	0.78242865250014
12.039857751004	0.78242619238218
12.006105646776	0.78242365716496
11.972542252396	0.78242104951058
11.939165989646	0.78241837204335
11.905975297855	0.78241562735000
11.872968633663	0.78241281797995
11.840144470774	0.78240994644550
11.807501299724	0.78240701522207
11.775037627651	0.78240402674844
11.742751978065	0.78240098342699
11.710642890625	0.78239788762392
11.678708920919	0.78239474166949
11.646948640249	0.78239154785824
11.615360635413	0.78238830844928
11.583943508501	0.78238502566644
11.552695876686	0.78238170169860
11.521616372022	0.78237833869988
11.490703641242	0.78237493878986
11.459956345566	0.78237150405388
11.429373160503	0.78236803654324
11.398952775665	0.78236453827544
11.368693894577	0.78236101123446
11.338595234493	0.78235745737094
11.308655526217	0.78235387860250
11.278873513920	0.78235027681392
11.249247954972	0.78234665385740
11.219777619760	0.78234301155286
11.190461291527	0.78233935168809
11.161297766195	0.78233567601907
11.132285852209	0.78233198627020
11.103424370370	0.78232828413452
11.074712153676	0.78232457127399
11.046148047163	0.78232084931973
11.017730907755	0.78231711987225
10.989459604106	0.78231338450172
10.961333016453	0.78230964474820
10.933350036470	0.78230590212190
10.905509567115	0.78230215810342
10.877810522496	0.78229841414403
10.850251827723	0.78229467166586
10.822832418773	0.78229093206221
10.795551242348	0.78228719669774
10.768407255747	0.78228346690879
10.741399426729	0.78227974400357
10.714526733381	0.78227602926242
10.687788163993	0.78227232393810
10.661182716927	0.78226862925597
10.634709400497	0.78226494641430
10.608367232838	0.78226127658450
10.582155241793	0.78225762091136
10.556072464789	0.78225398051330
10.530117948718	0.78225035648264
10.504290749825	0.78224674988580
10.478589933590	0.78224316176362
10.453014574616	0.78223959313153
10.427563756522	0.78223604497988
10.402236571825	0.78223251827411
10.377032121841	0.78222901395505
10.351949516575	0.78222553293914
10.326987874612	0.78222207611869
10.302146323024	0.78221864436214
10.277423997257	0.78221523851425
10.252820041040	0.78221185939643
10.228333606278	0.78220850780691
10.203963852961	0.78220518452103
10.179709949066	0.78220189029147
10.155571070461	0.78219862584849
10.131546400811	0.78219539190019
10.107635131490	0.78219218913272
10.083836461487	0.78218901821057
10.060149597315	0.78218587977678
10.036573752929	0.78218277445318
10.013108149633	0.78217970284064
9.9897520159947	0.78217666551933
9.9665045877660	0.78217366304893
9.9433651077944	0.78217069596886
9.9203328259431	0.78216776479859
9.8974069990096	0.78216487003777
9.8745868906456	0.78216201216657
9.8518717712783	0.78215919164584
9.8292609180328	0.78215640891741
9.8067536146549	0.78215366440427
9.7843491514360	0.78215095851084
9.7620468251384	0.78214829162318
9.7398459389214	0.78214566410926
9.7177458022690	0.78214307631916
9.6957457309185	0.78214052858529
9.6738450467893	0.78213802122267
9.6520430779137	0.78213555452912
9.6303391583681	0.78213312878550
9.6087326282051	0.78213074425596
9.5872228333866	0.78212840118811
9.5658091257179	0.78212609981332
9.5444908627826	0.78212384034689
9.5232674078780	0.78212162298831
9.5021381299525	0.78211944792147
9.4811024035421	0.78211731531488
9.4601596087094	0.78211522532188
9.4393091309824	0.78211317808091
9.4185503612944	0.78211117371568
9.3978826959248	0.78210921233541
9.3773055364404	0.78210729403503
9.3568182896380	0.78210541889546
9.3364203674868	0.78210358698374
9.3161111870727	0.78210179835329
9.2958901705426	0.78210005304414
9.2757567450495	0.78209835108312
9.2557103426984	0.78209669248406
9.2357504004929	0.78209507724805
9.2158763602828	0.78209350536359
9.1960876687117	0.78209197680684
9.1763837771656	0.78209049154182
9.1567641417227	0.78208904952061
9.1372282231027	0.78208765068357
9.1177754866180	0.78208629495953
9.0984054021244	0.78208498226599
9.0791174439733	0.78208371250935
9.0599110909640	0.78208248558507
9.0407858262967	0.78208130137792
9.0217411375263	0.78208015976214
9.0027765165165	0.78207906060166
8.9838914593947	0.78207800375028
8.9650854665072	0.78207698905187
8.9463580423754	0.78207601634058
8.9277086956522	0.78207508544103
8.9091369390788	0.78207419616847
8.8906422894425	0.78207334832903
8.8722242675348	0.78207254171984
8.8538823981099	0.78207177612928
8.8356162098438	0.78207105133713
8.8174252352941	0.78207036711477
8.7993090108600	0.78206972322536
8.7812670767428	0.78206911942403
8.7632989769073	0.78206855545806
8.7454042590432	0.78206803106706
8.7275824745269	0.78206754598314
8.7098331783847	0.78206709993111
8.6921559292549	0.78206669262863
8.6745502893519	0.78206632378641
8.6570158244297	0.78206599310838
8.6395521037464	0.78206570029185
8.6221587000288	0.78206544502769
8.6048351894374	0.78206522700051
8.5875811515325	0.78206504588882
8.5703961692396	0.78206490136518
8.5532798288160	0.78206479309642
8.5362317198178	0.78206472074373
8.5192514350668	0.78206468396289
8.5023385706183	0.78206468240441
8.4854927257288	0.78206471571367
8.4687135028249	0.78206478353112
8.4520005074711	0.78206488549240
8.4353533483399	0.78206502122852
8.4187716371806	0.78206519036602
8.4022549887892	0.78206539252709
8.3858030209790	0.78206562732978
8.3694153545505	0.78206589438809
8.3530916132627	0.78206619331218
8.3368314238042	0.78206652370845
8.3206344157646	0.78206688517978
8.3045002216066	0.78206727732556
8.2884284766381	0.78206769974196
8.2724188189845	0.78206815202196
8.2564708895621	0.78206863375558
8.2405843320506	0.78206914452996
8.2247587928669	0.78206968392953
8.2089939211391	0.78207025153615
8.1932893686800	0.78207084692924
8.1776447899618	0.78207146968588
8.1620598420909	0.78207211938102
8.1465341847826	0.78207279558753
8.1310674803363	0.78207349787641
8.1156593936113	0.78207422581684
8.1003095920022	0.78207497897638
8.0850177454153	0.78207575692103
8.0697835262450	0.78207655921541
8.0546066093498	0.78207738542286
8.0394866720300	0.78207823510557
8.0244233940043	0.78207910782468
8.0094164573871	0.78208000314043
7.9944655466667	0.78208092061225
7.9795703486825	0.78208185979891
7.9647305526036	0.78208282025859
7.9499458499072	0.78208380154905
7.9352159343568	0.78208480322768
7.9205405019815	0.78208582485167
7.9059192510549	0.78208686597808
7.8913518820742	0.78208792616395
7.8768380977404	0.78208900496645
7.8623776029373	0.78209010194292
7.8479701047120	0.78209121665102
7.8336153122550	0.78209234864883
7.8193129368805	0.78209349749494
7.8050626920073	0.78209466274852
7.7908642931393	0.78209584396950
7.7767174578470	0.78209704071857
7.7626219057483	0.78209825255735
7.7485773584906	0.78209947904846
7.7345835397317	0.78210071975558
7.7206401751223	0.78210197424360
7.7067469922879	0.78210324207868
7.6929037208109	0.78210452282832
7.6791100922131	0.78210581606147
7.6653658399386	0.78210712134864
7.6516706993364	0.78210843826192
7.6380244076433	0.78210976637514
7.6244267039674	0.78211110526387
7.6108773292714	0.78211245450558
7.5973760263558	0.78211381367967
7.5839225398432	0.78211518236754
7.5705166161616	0.78211656015272
7.5571580035291	0.78211794662088
7.5438464519376	0.78211934135997
7.5305817131374	0.78212074396022
7.5173635406219	0.78212215401427
7.5041916896120	0.78212357111721
7.4910659170415	0.78212499486667
7.4779859815415	0.78212642486285
7.4649516434263	0.78212786070863
7.4519626646781	0.78212930200961
7.4390188089330	0.78213074837416
7.4261198414664	0.78213219941351
7.4132655291790	0.78213365474180
7.4004556405826	0.78213511397614
7.3876899457861	0.78213657673665
7.3749682164822	0.78213804264655
7.3622902259332	0.78213951133219
7.3496557489581	0.78214098242310
7.3370645619187	0.78214245555207
7.3245164427071	0.78214393035517
7.3120111707317	0.78214540647184
7.2995485269053	0.78214688354488
7.2871282936315	0.78214836122056
7.2747502547925	0.78214983914862
7.2624141957364	0.78215131698234
7.2501199032648	0.78215279437857
7.2378671656205	0.78215427099780
7.2256557724753	0.78215574650416
7.2134855149182	0.78215722056548
7.2013561854432	0.78215869285334
7.1892675779376	0.78216016304311
7.1772194876706	0.78216163081394
7.1652117112811	0.78216309584886
7.1532440467669	0.78216455783477
7.1413162934731	0.78216601646250
7.1294282520809	0.78216747142680
7.1175797245964	0.78216892242644
7.1057705143399	0.78217036916416
7.0940004259347	0.78217181134676
7.0822692652965	0.78217324868511
7.0705768396226	0.78217468089415
7.0589229573817	0.78217610769294
7.0473074283028	0.78217752880470
7.0357300633654	0.78217894395679
7.0241906747891	0.78218035288076
7.0126890760234	0.78218175531236
7.0012250817375	0.78218315099158
6.9897985078107	0.78218453966263
6.9784091713222	0.78218592107400
6.9670568905415	0.78218729497843
6.9557414849188	0.78218866113298
6.9444627750753	0.78219001929899
6.9332205827937	0.78219136924212
6.9220147310090	0.78219271073238
6.9108450437990	0.78219404354410
6.8997113463751	0.78219536745596
6.8886134650735	0.78219668225101
6.8775512273457	0.78219798771666
6.8665244617499	0.78219928364470
6.8555329979419	0.78220056983128
6.8445766666667	0.78220184607696
6.8336552997493	0.78220311218668
6.8227687300865	0.78220436796975
6.8119167916383	0.78220561323992
6.8010993194192	0.78220684781528
6.7903161494904	0.78220807151835
6.7795671189507	0.78220928417603
6.7688520659291	0.78221048561962
6.7581708295762	0.78221167568480
6.7475232500563	0.78221285421164
6.7369091685393	0.78221402104460
6.7263284271932	0.78221517603249
6.7157808691756	0.78221631902852
6.7052663386267	0.78221744989024
6.6947846806610	0.78221856847957
6.6843357413601	0.78221967466276
6.6739193677649	0.78222076831042
6.6635354078684	0.78222184929745
6.6531837106081	0.78222291750310
6.6428641258586	0.78222397281089
6.6325765044248	0.78222501510867
6.6223206980340	0.78222604428852
6.6120965593295	0.78222706024681
6.6019039418630	0.78222806288415
6.5917427000879	0.78222905210538
6.5816126893524	0.78223002781954
6.5715137658922	0.78223098993988
6.5614457868243	0.78223193838383
6.5514086101399	0.78223287307297
6.5414020946978	0.78223379393300
6.5314261002179	0.78223470089379
6.5214804872743	0.78223559388925
6.5115651172893	0.78223647285739
6.5016798525266	0.78223733774029
6.4918245560849	0.78223818848402
6.4819990918919	0.78223902503869
6.4722033246978	0.78223984735837
6.4624371200690	0.78224065540110
6.4527003443823	0.78224144912883
6.4429928648184	0.78224222850745
6.4333145493562	0.78224299350668
6.4236652667667	0.78224374410013
6.4140448866068	0.78224448026520
6.4044532792138	0.78224520198311
6.3948903156997	0.78224590923883
6.3853558679446	0.78224660202105
6.3758498085921	0.78224728032218
6.3663720110427	0.78224794413830
6.3569223494487	0.78224859346912
6.3475006987084	0.78224922831798
6.3381069344609	0.78224984869176
6.3287409330800	0.78225045460092
6.3194025716695	0.78225104605940
6.3100917280572	0.78225162308463
6.3008082807902	0.78225218569749
6.2915521091291	0.78225273392223
6.2823230930427	0.78225326778650
6.2731211132036	0.78225378732129
6.2639460509820	0.78225429256085
6.2547977884415	0.78225478354274
6.2456762083333	0.78225526030771
6.2365811940919	0.78225572289970
6.2275126298297	0.78225617136582
6.2184704003319	0.78225660575626
6.2094543910522	0.78225702612430
6.2004644881075	0.78225743252625
6.1915005782734	0.78225782502142
6.1825625489792	0.78225820367206
6.1736502883031	0.78225856854334
6.1647636849681	0.78225891970330
6.1559026283368	0.78225925722282
6.1470670084068	0.78225958117556
6.1382567158067	0.78225989163794
6.1294716417910	0.78226018868908
6.1207116782360	0.78226047241078
6.1119767176351	0.78226074288745
6.1032666530945	0.78226100020608
6.0945813783289	0.78226124445622
6.0859207876573	0.78226147572989
6.0772847759984	0.78226169412158
6.0686732388664	0.78226189972820
6.0600860723671	0.78226209264899
6.0515231731934	0.78226227298556
6.0429844386212	0.78226244084176
6.0344697665056	0.78226259632370
6.0259790552764	0.78226273953966
6.0175122039342	0.78226287060008
6.0090691120465	0.78226298961750
6.0006496797438	0.78226309670652
5.9922538077154	0.78226319198374
5.9838813972056	0.78226327556774
5.9755323500100	0.78226334757902
5.9672065684713	0.78226340813995
5.9589039554760	0.78226345737473
5.9506244144502	0.78226349540936
5.9423678493558	0.78226352237158
5.9341341646873	0.78226353839080
5.9259232654675	0.78226354359811
5.9177350572444	0.78226353812619
5.9095694460871	0.78226352210928
5.9014263385827	0.78226349568314
5.8933056418321	0.78226345898498
5.8852072634472	0.78226341215345
5.8771311115468	0.78226335532858
5.8690770947533	0.78226328865170
5.8610451221896	0.78226321226545
5.8530351034752	0.78226312631371
5.8450469487229	0.78226303094153
5.8370805685358	0.78226292629514
5.8291358740035	0.78226281252184
5.8212127766990	0.78226268977001
5.8133111886756	0.78226255818903
5.8054310224632	0.78226241792925
5.7975721910656	0.78226226914193
5.7897346079567	0.78226211197923
5.7819181870781	0.78226194659410
5.7741228428351	0.78226177314032
5.7663484900942	0.78226159177239
5.7585950441798	0.78226140264548
5.7508624208709	0.78226120591546
5.7431505363985	0.78226100173877
5.7354593074421	0.78226079027243
5.7277886511272	0.78226057167396
5.7201384850219	0.78226034610138
5.7125087271341	0.78226011371311
5.7048992959087	0.78225987466798
5.6973101102242	0.78225962912516
5.6897410893908	0.78225937724410
5.6821921531463	0.78225911918453
5.6746632216544	0.78225885510638
5.6671542155009	0.78225858516975
5.6596650556919	0.78225830953487
5.6521956636501	0.78225802836207
5.6447459612126	0.78225774181171
5.6373158706281	0.78225745004414
5.6299053145540	0.78225715321970
5.6225142160540	0.78225685149863
5.6151424985952	0.78225654504104
5.6077900860456	0.78225623400691
5.6004569026714	0.78225591855599
5.5931428731343	0.78225559884779
5.5858479224893	0.78225527504155
5.5785719761816	0.78225494729617
5.5713149600446	0.78225461577021
5.5640768002970	0.78225428062180
5.5568574235403	0.78225394200866
5.5496567567568	0.78225360008802
5.5424747273063	0.78225325501658
5.5353112629247	0.78225290695052
5.5281662917204	0.78225255604540
5.5210397421731	0.78225220245616
5.5139315431304	0.78225184633708
5.5068416238060	0.78225148784174
5.4997699137773	0.78225112712297
5.4927163429828	0.78225076433285
5.4856808417200	0.78225039962264
5.4786633406433	0.78225003314275
5.4716637707611	0.78224966504272
5.4646820634342	0.78224929547119
5.4577181503732	0.78224892457584
5.4507719636364	0.78224855250339
5.4438434356274	0.78224817939952
5.4369324990932	0.78224780540889
5.4300390871219	0.78224743067509
5.4231631331404	0.78224705534059
5.4163045709124	0.78224667954672
5.4094633345363	0.78224630343366
5.4026393584430	0.78224592714036
5.3958325773938	0.78224555080458
5.3890429264785	0.78224517456278
5.3822703411131	0.78224479855018
5.3755147570378	0.78224442290063
5.3687761103152	0.78224404774669
5.3620543373278	0.78224367321952
5.3553493747767	0.78224329944887
5.3486611596789	0.78224292656309
5.3419896293656	0.78224255468907
5.3353347214807	0.78224218395222
5.3286963739780	0.78224181447644
5.3220745251198	0.78224144638411
5.3154691134752	0.78224107979608
5.3088800779175	0.78224071483157
5.3023073576229	0.78224035160826
5.2957508920685	0.78223999024218
5.2892106210303	0.78223963084770
5.2826864845815	0.78223927353756
5.2761784230905	0.78223891842279
5.2696863772192	0.78223856561270
5.2632102879213	0.78223821521491
5.2567500964405	0.78223786733526
5.2503057443082	0.78223752207783
5.2438771733427	0.78223717954491
5.2374643256464	0.78223683983699
5.2310671436050	0.78223650305274
5.2246855698850	0.78223616928899
5.2183195474326	0.78223583864070
5.2119690194715	0.78223551120096
5.2056339295016	0.78223518706100
5.1993142212973	0.78223486631011
5.1930098389052	0.78223454903567
5.1867207266436	0.78223423532314
5.1804468290997	0.78223392525603
5.1741880911288	0.78223361891588
5.1679444578521	0.78223331638227
5.1617158746556	0.78223301773278
5.1555022871883	0.78223272304303
5.1493036413604	0.78223243238658
5.1431198833419	0.78223214583503
5.1369509595613	0.78223186345792
5.1307968167037	0.78223158532277
5.1246574017094	0.78223131149503
5.1185326617722	0.78223104203813
5.1124225443383	0.78223077701343
5.1063269971044	0.78223051648022
5.1002459680163	0.78223026049571
5.0941794052676	0.78223000911504
5.0881272572980	0.78222976239126
5.0820894727920	0.78222952037534
5.0760660006773	0.78222928311614
5.0700567901235	0.78222905066044
5.0640617905405	0.78222882305290
5.0580809515775	0.78222860033609
5.0521142231210	0.78222838255047
5.0461615552937	0.78222816973439
5.0402228984533	0.78222796192410
5.0342982031906	0.78222775915373
5.0283874203287	0.78222756145530
5.0224905009214	0.78222736885872
5.0166073962517	0.78222718139182
5.0107380578305	0.78222699908028
5.0048824373957	0.78222682194770
4.9990404869101	0.78222665001559
4.9932121585610	0.78222648330334
4.9873974047579	0.78222632182825
4.9815961781323	0.78222616560553
4.9758084315353	0.78222601464833
4.9700341180371	0.78222586896767
4.9642731909256	0.78222572857255
4.9585256037049	0.78222559346986
4.9527913100942	0.78222546366445
4.9470702640264	0.78222533915912
4.9413624196473	0.78222521995460
4.9356677313138	0.78222510604962
4.9299861535932	0.78222499744085
4.9243176412615	0.78222489412296
4.9186621493027	0.78222479608860
4.9130196329072	0.78222470332843
4.9073900474709	0.78222461583112
4.9017733485939	0.78222453358336
4.8961694920790	0.78222445656989
4.8905784339315	0.78222438477348
4.8850001303569	0.78222431817499
4.8794345377604	0.78222425675332
4.8738816127459	0.78222420048548
4.8683413121143	0.78222414934659
4.8628135928629	0.78222410330986
4.8572984121841	0.78222406234668
4.8517957274640	0.78222402642655
4.8463054962819	0.78222399551714
4.8408276764088	0.78222396958434
4.8353622258065	0.78222394859218
