#Parameters = {thARC=0.2; nARC=1; thsub=1; p=1; nSub=2.75}
#"Wavelength / um"	"T (380) [Real Part]"
#---------------------------------------
14.989622900000	0.78222254005098
14.937342202292	0.78222273667816
14.885424925521	0.78222292771682
14.833867293419	0.78222311323026
14.782665581854	0.78222329328154
14.731816117936	0.78222346793353
14.681315279138	0.78222363724887
14.631159492435	0.78222380128998
14.581345233463	0.78222396011907
14.531869025691	0.78222411379811
14.482727439614	0.78222426238885
14.433917091960	0.78222440595280
14.385434644914	0.78222454455125
14.337276805356	0.78222467824524
14.289440324118	0.78222480709560
14.241921995249	0.78222493116288
14.194718655303	0.78222505050743
14.147827182633	0.78222516518933
14.101244496707	0.78222527526842
14.054967557431	0.78222538080428
14.008993364486	0.78222548185628
13.963318956684	0.78222557848348
13.917941411328	0.78222567074473
13.872857843591	0.78222575869860
13.828065405904	0.78222584240341
13.783561287356	0.78222592191722
13.739342713107	0.78222599729782
13.695406943810	0.78222606860273
13.651751275046	0.78222613588922
13.608373036768	0.78222619921429
13.565269592760	0.78222625863464
13.522438340099	0.78222631420674
13.479876708633	0.78222636598675
13.437582160466	0.78222641403057
13.395552189455	0.78222645839382
13.353784320713	0.78222649913184
13.312276110124	0.78222653629969
13.271025143869	0.78222656995213
13.230029037952	0.78222660014367
13.189285437747	0.78222662692850
13.148792017544	0.78222665036053
13.108546480105	0.78222667049340
13.068546556234	0.78222668738042
13.028790004346	0.78222670107463
12.989274610052	0.78222671162879
12.949998185745	0.78222671909534
12.910958570198	0.78222672352643
12.872153628167	0.78222672497390
12.833581250000	0.78222672348932
12.795239351259	0.78222671912392
12.757125872340	0.78222671192865
12.719238778108	0.78222670195416
12.681576057530	0.78222668925077
12.644135723323	0.78222667386851
12.606915811606	0.78222665585711
12.569914381551	0.78222663526596
12.533129515050	0.78222661214417
12.496559316382	0.78222658654052
12.460201911887	0.78222655850348
12.424055449648	0.78222652808122
12.388118099174	0.78222649532157
12.352388051092	0.78222646027206
12.316863516845	0.78222642297989
12.281542728390	0.78222638349196
12.246423937908	0.78222634185484
12.211505417515	0.78222629811477
12.176785458976	0.78222625231769
12.142262373431	0.78222620450919
12.107934491115	0.78222615473456
12.073800161095	0.78222610303876
12.039857751004	0.78222604946641
12.006105646776	0.78222599406184
11.972542252396	0.78222593686900
11.939165989646	0.78222587793156
11.905975297855	0.78222581729285
11.872968633663	0.78222575499585
11.840144470774	0.78222569108324
11.807501299724	0.78222562559734
11.775037627651	0.78222555858017
11.742751978065	0.78222549007340
11.710642890625	0.78222542011837
11.678708920919	0.78222534875608
11.646948640249	0.78222527602722
11.615360635413	0.78222520197213
11.583943508501	0.78222512663082
11.552695876686	0.78222505004295
11.521616372022	0.78222497224787
11.490703641242	0.78222489328458
11.459956345566	0.78222481319176
11.429373160503	0.78222473200772
11.398952775665	0.78222464977048
11.368693894577	0.78222456651768
11.338595234493	0.78222448228665
11.308655526217	0.78222439711437
11.278873513920	0.78222431103749
11.249247954972	0.78222422409233
11.219777619760	0.78222413631484
11.190461291527	0.78222404774067
11.161297766195	0.78222395840511
11.132285852209	0.78222386834311
11.103424370370	0.78222377758930
11.074712153676	0.78222368617796
11.046148047163	0.78222359414303
11.017730907755	0.78222350151811
10.989459604106	0.78222340833647
10.961333016453	0.78222331463102
10.933350036470	0.78222322043437
10.905509567115	0.78222312577877
10.877810522496	0.78222303069611
10.850251827723	0.78222293521798
10.822832418773	0.78222283937561
10.795551242348	0.78222274319989
10.768407255747	0.78222264672140
10.741399426729	0.78222254997034
10.714526733381	0.78222245297661
10.687788163993	0.78222235576975
10.661182716927	0.78222225837898
10.634709400497	0.78222216083317
10.608367232838	0.78222206316085
10.582155241793	0.78222196539024
10.556072464789	0.78222186754919
10.530117948718	0.78222176966525
10.504290749825	0.78222167176560
10.478589933590	0.78222157387712
10.453014574616	0.78222147602633
10.427563756522	0.78222137823943
10.402236571825	0.78222128054229
10.377032121841	0.78222118296042
10.351949516575	0.78222108551905
10.326987874612	0.78222098824303
10.302146323024	0.78222089115689
10.277423997257	0.78222079428486
10.252820041040	0.78222069765080
10.228333606278	0.78222060127826
10.203963852961	0.78222050519048
10.179709949066	0.78222040941033
10.155571070461	0.78222031396038
10.131546400811	0.78222021886288
10.107635131490	0.78222012413974
10.083836461487	0.78222002981255
10.060149597315	0.78221993590257
10.036573752929	0.78221984243075
10.013108149633	0.78221974941770
9.9897520159947	0.78221965688373
9.9665045877660	0.78221956484881
9.9433651077944	0.78221947333260
9.9203328259431	0.78221938235444
9.8974069990096	0.78221929193334
9.8745868906456	0.78221920208802
9.8518717712783	0.78221911283684
9.8292609180328	0.78221902419790
9.8067536146549	0.78221893618893
9.7843491514360	0.78221884882739
9.7620468251384	0.78221876213040
9.7398459389214	0.78221867611478
9.7177458022690	0.78221859079704
9.6957457309185	0.78221850619338
9.6738450467893	0.78221842231968
9.6520430779137	0.78221833919153
9.6303391583681	0.78221825682420
9.6087326282051	0.78221817523267
9.5872228333866	0.78221809443159
9.5658091257179	0.78221801443533
9.5444908627826	0.78221793525796
9.5232674078780	0.78221785691323
9.5021381299525	0.78221777941460
9.4811024035421	0.78221770277523
9.4601596087094	0.78221762700800
9.4393091309824	0.78221755212546
9.4185503612944	0.78221747813990
9.3978826959248	0.78221740506329
9.3773055364404	0.78221733290733
9.3568182896380	0.78221726168340
9.3364203674868	0.78221719140262
9.3161111870727	0.78221712207581
9.2958901705426	0.78221705371349
9.2757567450495	0.78221698632593
9.2557103426984	0.78221691992307
9.2357504004929	0.78221685451459
9.2158763602828	0.78221679010991
9.1960876687117	0.78221672671812
9.1763837771656	0.78221666434808
9.1567641417227	0.78221660300833
9.1372282231027	0.78221654270718
9.1177754866180	0.78221648345261
9.0984054021244	0.78221642525239
9.0791174439733	0.78221636811396
9.0599110909640	0.78221631204453
9.0407858262967	0.78221625705102
9.0217411375263	0.78221620314008
9.0027765165165	0.78221615031812
8.9838914593947	0.78221609859127
8.9650854665072	0.78221604796538
8.9463580423754	0.78221599844606
8.9277086956522	0.78221595003867
8.9091369390788	0.78221590274828
8.8906422894425	0.78221585657973
8.8722242675348	0.78221581153759
8.8538823981099	0.78221576762619
8.8356162098438	0.78221572484960
8.8174252352941	0.78221568321164
8.7993090108600	0.78221564271587
8.7812670767428	0.78221560336563
8.7632989769073	0.78221556516400
8.7454042590432	0.78221552811382
8.7275824745269	0.78221549221767
8.7098331783847	0.78221545747791
8.6921559292549	0.78221542389667
8.6745502893519	0.78221539147581
8.6570158244297	0.78221536021699
8.6395521037464	0.78221533012160
8.6221587000288	0.78221530119084
8.6048351894374	0.78221527342566
8.5875811515325	0.78221524682676
8.5703961692396	0.78221522139465
8.5532798288160	0.78221519712959
8.5362317198178	0.78221517403163
8.5192514350668	0.78221515210060
8.5023385706183	0.78221513133610
8.4854927257288	0.78221511173752
8.4687135028249	0.78221509330403
8.4520005074711	0.78221507603459
8.4353533483399	0.78221505992795
8.4187716371806	0.78221504498263
8.4022549887892	0.78221503119696
8.3858030209790	0.78221501856907
8.3694153545505	0.78221500709687
8.3530916132627	0.78221499677806
8.3368314238042	0.78221498761017
8.3206344157646	0.78221497959049
8.3045002216066	0.78221497271613
8.2884284766381	0.78221496698403
8.2724188189845	0.78221496239089
8.2564708895621	0.78221495893325
8.2405843320506	0.78221495660745
8.2247587928669	0.78221495540964
8.2089939211391	0.78221495533579
8.1932893686800	0.78221495638166
8.1776447899618	0.78221495854288
8.1620598420909	0.78221496181484
8.1465341847826	0.78221496619279
8.1310674803363	0.78221497167179
8.1156593936113	0.78221497824673
8.1003095920022	0.78221498591231
8.0850177454153	0.78221499466309
8.0697835262450	0.78221500449342
8.0546066093498	0.78221501539753
8.0394866720300	0.78221502736944
8.0244233940043	0.78221504040304
8.0094164573871	0.78221505449203
7.9944655466667	0.78221506962998
7.9795703486825	0.78221508581028
7.9647305526036	0.78221510302617
7.9499458499072	0.78221512127074
7.9352159343568	0.78221514053693
7.9205405019815	0.78221516081751
7.9059192510549	0.78221518210514
7.8913518820742	0.78221520439230
7.8768380977404	0.78221522767134
7.8623776029373	0.78221525193447
7.8479701047120	0.78221527717375
7.8336153122550	0.78221530338111
7.8193129368805	0.78221533054834
7.8050626920073	0.78221535866711
7.7908642931393	0.78221538772893
7.7767174578470	0.78221541772521
7.7626219057483	0.78221544864720
7.7485773584906	0.78221548048606
7.7345835397317	0.78221551323280
7.7206401751223	0.78221554687831
7.7067469922879	0.78221558141336
7.6929037208109	0.78221561682863
7.6791100922131	0.78221565311463
7.6653658399386	0.78221569026180
7.6516706993364	0.78221572826046
7.6380244076433	0.78221576710080
7.6244267039674	0.78221580677292
7.6108773292714	0.78221584726681
7.5973760263558	0.78221588857235
7.5839225398432	0.78221593067933
7.5705166161616	0.78221597357741
7.5571580035291	0.78221601725620
7.5438464519376	0.78221606170516
7.5305817131374	0.78221610691370
7.5173635406219	0.78221615287110
7.5041916896120	0.78221619956659
7.4910659170415	0.78221624698928
7.4779859815415	0.78221629512820
7.4649516434263	0.78221634397229
7.4519626646781	0.78221639351044
7.4390188089330	0.78221644373141
7.4261198414664	0.78221649462393
7.4132655291790	0.78221654617661
7.4004556405826	0.78221659837801
7.3876899457861	0.78221665121661
7.3749682164822	0.78221670468082
7.3622902259332	0.78221675875899
7.3496557489581	0.78221681343940
7.3370645619187	0.78221686871024
7.3245164427071	0.78221692455967
7.3120111707317	0.78221698097577
7.2995485269053	0.78221703794657
7.2871282936315	0.78221709546003
7.2747502547925	0.78221715350408
7.2624141957364	0.78221721206657
7.2501199032648	0.78221727113531
7.2378671656205	0.78221733069806
7.2256557724753	0.78221739074254
7.2134855149182	0.78221745125640
7.2013561854432	0.78221751222727
7.1892675779376	0.78221757364273
7.1772194876706	0.78221763549032
7.1652117112811	0.78221769775754
7.1532440467669	0.78221776043186
7.1413162934731	0.78221782350071
7.1294282520809	0.78221788695149
7.1175797245964	0.78221795077157
7.1057705143399	0.78221801494828
7.0940004259347	0.78221807946894
7.0822692652965	0.78221814432084
7.0705768396226	0.78221820949125
7.0589229573817	0.78221827496739
7.0473074283028	0.78221834073651
7.0357300633654	0.78221840678581
7.0241906747891	0.78221847310248
7.0126890760234	0.78221853967369
7.0012250817375	0.78221860648661
6.9897985078107	0.78221867352840
6.9784091713222	0.78221874078620
6.9670568905415	0.78221880824715
6.9557414849188	0.78221887589838
6.9444627750753	0.78221894372704
6.9332205827937	0.78221901172024
6.9220147310090	0.78221907986512
6.9108450437990	0.78221914814882
6.8997113463751	0.78221921655846
6.8886134650735	0.78221928508120
6.8775512273457	0.78221935370419
6.8665244617499	0.78221942241458
6.8555329979419	0.78221949119954
6.8445766666667	0.78221956004627
6.8336552997493	0.78221962894195
6.8227687300865	0.78221969787381
6.8119167916383	0.78221976682907
6.8010993194192	0.78221983579499
6.7903161494904	0.78221990475884
6.7795671189507	0.78221997370792
6.7688520659291	0.78222004262955
6.7581708295762	0.78222011151108
6.7475232500563	0.78222018033988
6.7369091685393	0.78222024910336
6.7263284271932	0.78222031778895
6.7157808691756	0.78222038638412
6.7052663386267	0.78222045487639
6.6947846806610	0.78222052325328
6.6843357413601	0.78222059150237
6.6739193677649	0.78222065961129
6.6635354078684	0.78222072756769
6.6531837106081	0.78222079535928
6.6428641258586	0.78222086297378
6.6325765044248	0.78222093039901
6.6223206980340	0.78222099762278
6.6120965593295	0.78222106463300
6.6019039418630	0.78222113141760
6.5917427000879	0.78222119796456
6.5816126893524	0.78222126426193
6.5715137658922	0.78222133029780
6.5614457868243	0.78222139606032
6.5514086101399	0.78222146153771
6.5414020946978	0.78222152671824
6.5314261002179	0.78222159159023
6.5214804872743	0.78222165614208
6.5115651172893	0.78222172036225
6.5016798525266	0.78222178423925
6.4918245560849	0.78222184776168
6.4819990918919	0.78222191091818
6.4722033246978	0.78222197369748
6.4624371200690	0.78222203608838
6.4527003443823	0.78222209807975
6.4429928648184	0.78222215966052
6.4333145493562	0.78222222081971
6.4236652667667	0.78222228154642
6.4140448866068	0.78222234182980
6.4044532792138	0.78222240165911
6.3948903156997	0.78222246102367
6.3853558679446	0.78222251991289
6.3758498085921	0.78222257831627
6.3663720110427	0.78222263622337
6.3569223494487	0.78222269362386
6.3475006987084	0.78222275050748
6.3381069344609	0.78222280686407
6.3287409330800	0.78222286268355
6.3194025716695	0.78222291795592
6.3100917280572	0.78222297267131
6.3008082807902	0.78222302681989
6.2915521091291	0.78222308039196
6.2823230930427	0.78222313337791
6.2731211132036	0.78222318576821
6.2639460509820	0.78222323755344
6.2547977884415	0.78222328872428
6.2456762083333	0.78222333927150
6.2365811940919	0.78222338918597
6.2275126298297	0.78222343845867
6.2184704003319	0.78222348708068
6.2094543910522	0.78222353504317
6.2004644881075	0.78222358233745
6.1915005782734	0.78222362895489
6.1825625489792	0.78222367488700
6.1736502883031	0.78222372012539
6.1647636849681	0.78222376466176
6.1559026283368	0.78222380848794
6.1470670084068	0.78222385159587
6.1382567158067	0.78222389397760
6.1294716417910	0.78222393562528
6.1207116782360	0.78222397653118
6.1119767176351	0.78222401668769
6.1032666530945	0.78222405608731
6.0945813783289	0.78222409472266
6.0859207876573	0.78222413258648
6.0772847759984	0.78222416967162
6.0686732388664	0.78222420597104
6.0600860723671	0.78222424147783
6.0515231731934	0.78222427618522
6.0429844386212	0.78222431008653
6.0344697665056	0.78222434317520
6.0259790552764	0.78222437544483
6.0175122039342	0.78222440688910
6.0090691120465	0.78222443750185
6.0006496797438	0.78222446727701
5.9922538077154	0.78222449620867
5.9838813972056	0.78222452429101
5.9755323500100	0.78222455151838
5.9672065684713	0.78222457788522
5.9589039554760	0.78222460338612
5.9506244144502	0.78222462801578
5.9423678493558	0.78222465176905
5.9341341646873	0.78222467464089
5.9259232654675	0.78222469662642
5.9177350572444	0.78222471772086
5.9095694460871	0.78222473791958
5.9014263385827	0.78222475721807
5.8933056418321	0.78222477561196
5.8852072634472	0.78222479309702
5.8771311115468	0.78222480966914
5.8690770947533	0.78222482532436
5.8610451221896	0.78222484005884
5.8530351034752	0.78222485386888
5.8450469487229	0.78222486675093
5.8370805685358	0.78222487870154
5.8291358740035	0.78222488971744
5.8212127766990	0.78222489979548
5.8133111886756	0.78222490893262
5.8054310224632	0.78222491712601
5.7975721910656	0.78222492437289
5.7897346079567	0.78222493067067
5.7819181870781	0.78222493601689
5.7741228428351	0.78222494040922
5.7663484900942	0.78222494384547
5.7585950441798	0.78222494632361
5.7508624208709	0.78222494784173
5.7431505363985	0.78222494839806
5.7354593074421	0.78222494799098
5.7277886511272	0.78222494661901
5.7201384850219	0.78222494428080
5.7125087271341	0.78222494097516
5.7048992959087	0.78222493670101
5.6973101102242	0.78222493145744
5.6897410893908	0.78222492524368
5.6821921531463	0.78222491805909
5.6746632216544	0.78222490990316
5.6671542155009	0.78222490077556
5.6596650556919	0.78222489067605
5.6521956636501	0.78222487960459
5.6447459612126	0.78222486756123
5.6373158706281	0.78222485454619
5.6299053145540	0.78222484055983
5.6225142160540	0.78222482560264
5.6151424985952	0.78222480967526
5.6077900860456	0.78222479277848
5.6004569026714	0.78222477491321
5.5931428731343	0.78222475608053
5.5858479224893	0.78222473628162
5.5785719761816	0.78222471551786
5.5713149600446	0.78222469379071
5.5640768002970	0.78222467110181
5.5568574235403	0.78222464745293
5.5496567567568	0.78222462284599
5.5424747273063	0.78222459728303
5.5353112629247	0.78222457076624
5.5281662917204	0.78222454329797
5.5210397421731	0.78222451488067
5.5139315431304	0.78222448551697
5.5068416238060	0.78222445520962
5.4997699137773	0.78222442396151
5.4927163429828	0.78222439177566
5.4856808417200	0.78222435865525
5.4786633406433	0.78222432460358
5.4716637707611	0.78222428962410
5.4646820634342	0.78222425372039
5.4577181503732	0.78222421689616
5.4507719636364	0.78222417915529
5.4438434356274	0.78222414050175
5.4369324990932	0.78222410093968
5.4300390871219	0.78222406047334
5.4231631331404	0.78222401910713
5.4163045709124	0.78222397684559
5.4094633345363	0.78222393369338
5.4026393584430	0.78222388965530
5.3958325773938	0.78222384473630
5.3890429264785	0.78222379894142
5.3822703411131	0.78222375227589
5.3755147570378	0.78222370474502
5.3687761103152	0.78222365635427
5.3620543373278	0.78222360710925
5.3553493747767	0.78222355701566
5.3486611596789	0.78222350607937
5.3419896293656	0.78222345430635
5.3353347214807	0.78222340170271
5.3286963739780	0.78222334827467
5.3220745251198	0.78222329402861
5.3154691134752	0.78222323897100
5.3088800779175	0.78222318310846
5.3023073576229	0.78222312644772
5.2957508920685	0.78222306899565
5.2892106210303	0.78222301075921
5.2826864845815	0.78222295174552
5.2761784230905	0.78222289196180
5.2696863772192	0.78222283141540
5.2632102879213	0.78222277011377
5.2567500964405	0.78222270806450
5.2503057443082	0.78222264527529
5.2438771733427	0.78222258175397
5.2374643256464	0.78222251750846
5.2310671436050	0.78222245254680
5.2246855698850	0.78222238687718
5.2183195474326	0.78222232050785
5.2119690194715	0.78222225344722
5.2056339295016	0.78222218570377
5.1993142212973	0.78222211728613
5.1930098389052	0.78222204820301
5.1867207266436	0.78222197846324
5.1804468290997	0.78222190807575
5.1741880911288	0.78222183704960
5.1679444578521	0.78222176539392
5.1617158746556	0.78222169311797
5.1555022871883	0.78222162023111
5.1493036413604	0.78222154674279
5.1431198833419	0.78222147266257
5.1369509595613	0.78222139800012
5.1307968167037	0.78222132276518
5.1246574017094	0.78222124696762
5.1185326617722	0.78222117061738
5.1124225443383	0.78222109372452
5.1063269971044	0.78222101629918
5.1002459680163	0.78222093835159
5.0941794052676	0.78222085989207
5.0881272572980	0.78222078093105
5.0820894727920	0.78222070147903
5.0760660006773	0.78222062154661
5.0700567901235	0.78222054114446
5.0640617905405	0.78222046028336
5.0580809515775	0.78222037897415
5.0521142231210	0.78222029722778
5.0461615552937	0.78222021505524
5.0402228984533	0.78222013246766
5.0342982031906	0.78222004947619
5.0283874203287	0.78221996609208
5.0224905009214	0.78221988232668
5.0166073962517	0.78221979819139
5.0107380578305	0.78221971369767
5.0048824373957	0.78221962885709
4.9990404869101	0.78221954368125
4.9932121585610	0.78221945818186
4.9873974047579	0.78221937237067
4.9815961781323	0.78221928625949
4.9758084315353	0.78221919986023
4.9700341180371	0.78221911318484
4.9642731909256	0.78221902624532
4.9585256037049	0.78221893905375
4.9527913100942	0.78221885162227
4.9470702640264	0.78221876396307
4.9413624196473	0.78221867608839
4.9356677313138	0.78221858801053
4.9299861535932	0.78221849974185
4.9243176412615	0.78221841129476
4.9186621493027	0.78221832268170
4.9130196329072	0.78221823391519
4.9073900474709	0.78221814500776
4.9017733485939	0.78221805597202
4.8961694920790	0.78221796682060
4.8905784339315	0.78221787756617
4.8850001303569	0.78221778822147
4.8794345377604	0.78221769879924
4.8738816127459	0.78221760931228
4.8683413121143	0.78221751977341
4.8628135928629	0.78221743019551
4.8572984121841	0.78221734059145
4.8517957274640	0.78221725097417
4.8463054962819	0.78221716135661
4.8408276764088	0.78221707175175
4.8353622258065	0.78221698217259
