#Parameters = {thARC=0; nARC=1.5; thsub=1; p=1; nSub=2.75}
#"Wavelength / um"	"T (391) [Real Part]"
#---------------------------------------
14.989622900000	0.78222132787538
14.937342202292	0.78222132564019
14.885424925521	0.78222132326044
14.833867293419	0.78222132073963
14.782665581854	0.78222131808124
14.731816117936	0.78222131528872
14.681315279138	0.78222131236552
14.631159492435	0.78222130931504
14.581345233463	0.78222130614068
14.531869025691	0.78222130284579
14.482727439614	0.78222129943374
14.433917091960	0.78222129590784
14.385434644914	0.78222129227138
14.337276805356	0.78222128852766
14.289440324118	0.78222128467991
14.241921995249	0.78222128073138
14.194718655303	0.78222127668526
14.147827182633	0.78222127254475
14.101244496707	0.78222126831301
14.054967557431	0.78222126399317
14.008993364486	0.78222125958835
13.963318956684	0.78222125510164
13.917941411328	0.78222125053611
13.872857843591	0.78222124589481
13.828065405904	0.78222124118074
13.783561287356	0.78222123639692
13.739342713107	0.78222123154632
13.695406943810	0.78222122663188
13.651751275046	0.78222122165653
13.608373036768	0.78222121662317
13.565269592760	0.78222121153469
13.522438340099	0.78222120639393
13.479876708633	0.78222120120374
13.437582160466	0.78222119596690
13.395552189455	0.78222119068621
13.353784320713	0.78222118536443
13.312276110124	0.78222118000429
13.271025143869	0.78222117460850
13.230029037952	0.78222116917974
13.189285437747	0.78222116372069
13.148792017544	0.78222115823397
13.108546480105	0.78222115272220
13.068546556234	0.78222114718796
13.028790004346	0.78222114163384
12.989274610052	0.78222113606235
12.949998185745	0.78222113047603
12.910958570198	0.78222112487736
12.872153628167	0.78222111926881
12.833581250000	0.78222111365282
12.795239351259	0.78222110803181
12.757125872340	0.78222110240817
12.719238778108	0.78222109678429
12.681576057530	0.78222109116249
12.644135723323	0.78222108554510
12.606915811606	0.78222107993442
12.569914381551	0.78222107433272
12.533129515050	0.78222106874224
12.496559316382	0.78222106316522
12.460201911887	0.78222105760384
12.424055449648	0.78222105206028
12.388118099174	0.78222104653669
12.352388051092	0.78222104103519
12.316863516845	0.78222103555789
12.281542728390	0.78222103010686
12.246423937908	0.78222102468415
12.211505417515	0.78222101929179
12.176785458976	0.78222101393179
12.142262373431	0.78222100860611
12.107934491115	0.78222100331671
12.073800161095	0.78222099806552
12.039857751004	0.78222099285445
12.006105646776	0.78222098768537
11.972542252396	0.78222098256015
11.939165989646	0.78222097748060
11.905975297855	0.78222097244855
11.872968633663	0.78222096746577
11.840144470774	0.78222096253402
11.807501299724	0.78222095765504
11.775037627651	0.78222095283053
11.742751978065	0.78222094806218
11.710642890625	0.78222094335166
11.678708920919	0.78222093870059
11.646948640249	0.78222093411060
11.615360635413	0.78222092958327
11.583943508501	0.78222092512016
11.552695876686	0.78222092072283
11.521616372022	0.78222091639278
11.490703641242	0.78222091213150
11.459956345566	0.78222090794048
11.429373160503	0.78222090382114
11.398952775665	0.78222089977492
11.368693894577	0.78222089580322
11.338595234493	0.78222089190739
11.308655526217	0.78222088808881
11.278873513920	0.78222088434878
11.249247954972	0.78222088068863
11.219777619760	0.78222087710961
11.190461291527	0.78222087361300
11.161297766195	0.78222087020002
11.132285852209	0.78222086687189
11.103424370370	0.78222086362978
11.074712153676	0.78222086047486
11.046148047163	0.78222085740827
11.017730907755	0.78222085443113
10.989459604106	0.78222085154453
10.961333016453	0.78222084874954
10.933350036470	0.78222084604720
10.905509567115	0.78222084343854
10.877810522496	0.78222084092456
10.850251827723	0.78222083850625
10.822832418773	0.78222083618454
10.795551242348	0.78222083396039
10.768407255747	0.78222083183469
10.741399426729	0.78222082980834
10.714526733381	0.78222082788220
10.687788163993	0.78222082605711
10.661182716927	0.78222082433390
10.634709400497	0.78222082271336
10.608367232838	0.78222082119627
10.582155241793	0.78222081978338
10.556072464789	0.78222081847542
10.530117948718	0.78222081727312
10.504290749825	0.78222081617714
10.478589933590	0.78222081518817
10.453014574616	0.78222081430683
10.427563756522	0.78222081353377
10.402236571825	0.78222081286958
10.377032121841	0.78222081231483
10.351949516575	0.78222081187010
10.326987874612	0.78222081153590
10.302146323024	0.78222081131277
10.277423997257	0.78222081120120
10.252820041040	0.78222081120166
10.228333606278	0.78222081131460
10.203963852961	0.78222081154046
10.179709949066	0.78222081187964
10.155571070461	0.78222081233255
10.131546400811	0.78222081289954
10.107635131490	0.78222081358097
10.083836461487	0.78222081437717
10.060149597315	0.78222081528845
10.036573752929	0.78222081631509
10.013108149633	0.78222081745737
9.9897520159947	0.78222081871554
9.9665045877660	0.78222082008981
9.9433651077944	0.78222082158041
9.9203328259431	0.78222082318752
9.8974069990096	0.78222082491131
9.8745868906456	0.78222082675193
9.8518717712783	0.78222082870952
9.8292609180328	0.78222083078418
9.8067536146549	0.78222083297601
9.7843491514360	0.78222083528507
9.7620468251384	0.78222083771144
9.7398459389214	0.78222084025513
9.7177458022690	0.78222084291617
9.6957457309185	0.78222084569455
9.6738450467893	0.78222084859026
9.6520430779137	0.78222085160325
9.6303391583681	0.78222085473347
9.6087326282051	0.78222085798085
9.5872228333866	0.78222086134528
9.5658091257179	0.78222086482667
9.5444908627826	0.78222086842487
9.5232674078780	0.78222087213974
9.5021381299525	0.78222087597112
9.4811024035421	0.78222087991882
9.4601596087094	0.78222088398265
9.4393091309824	0.78222088816239
9.4185503612944	0.78222089245779
9.3978826959248	0.78222089686862
9.3773055364404	0.78222090139461
9.3568182896380	0.78222090603546
9.3364203674868	0.78222091079088
9.3161111870727	0.78222091566054
9.2958901705426	0.78222092064412
9.2757567450495	0.78222092574126
9.2557103426984	0.78222093095159
9.2357504004929	0.78222093627474
9.2158763602828	0.78222094171029
9.1960876687117	0.78222094725784
9.1763837771656	0.78222095291696
9.1567641417227	0.78222095868719
9.1372282231027	0.78222096456807
9.1177754866180	0.78222097055914
9.0984054021244	0.78222097665988
9.0791174439733	0.78222098286981
9.0599110909640	0.78222098918838
9.0407858262967	0.78222099561507
9.0217411375263	0.78222100214932
9.0027765165165	0.78222100879057
8.9838914593947	0.78222101553823
8.9650854665072	0.78222102239170
8.9463580423754	0.78222102935038
8.9277086956522	0.78222103641365
8.9091369390788	0.78222104358085
8.8906422894425	0.78222105085135
8.8722242675348	0.78222105822447
8.8538823981099	0.78222106569954
8.8356162098438	0.78222107327586
8.8174252352941	0.78222108095272
8.7993090108600	0.78222108872942
8.7812670767428	0.78222109660520
8.7632989769073	0.78222110457933
8.7454042590432	0.78222111265106
8.7275824745269	0.78222112081960
8.7098331783847	0.78222112908418
8.6921559292549	0.78222113744400
8.6745502893519	0.78222114589825
8.6570158244297	0.78222115444611
8.6395521037464	0.78222116308675
8.6221587000288	0.78222117181933
8.6048351894374	0.78222118064299
8.5875811515325	0.78222118955686
8.5703961692396	0.78222119856006
8.5532798288160	0.78222120765171
8.5362317198178	0.78222121683090
8.5192514350668	0.78222122609672
8.5023385706183	0.78222123544825
8.4854927257288	0.78222124488455
8.4687135028249	0.78222125440468
8.4520005074711	0.78222126400768
8.4353533483399	0.78222127369260
8.4187716371806	0.78222128345845
8.4022549887892	0.78222129330424
8.3858030209790	0.78222130322899
8.3694153545505	0.78222131323169
8.3530916132627	0.78222132331132
8.3368314238042	0.78222133346686
8.3206344157646	0.78222134369727
8.3045002216066	0.78222135400152
8.2884284766381	0.78222136437854
8.2724188189845	0.78222137482728
8.2564708895621	0.78222138534667
8.2405843320506	0.78222139593563
8.2247587928669	0.78222140659308
8.2089939211391	0.78222141731791
8.1932893686800	0.78222142810903
8.1776447899618	0.78222143896532
8.1620598420909	0.78222144988566
8.1465341847826	0.78222146086893
8.1310674803363	0.78222147191399
8.1156593936113	0.78222148301969
8.1003095920022	0.78222149418489
8.0850177454153	0.78222150540843
8.0697835262450	0.78222151668915
8.0546066093498	0.78222152802586
8.0394866720300	0.78222153941741
8.0244233940043	0.78222155086259
8.0094164573871	0.78222156236022
7.9944655466667	0.78222157390909
7.9795703486825	0.78222158550802
7.9647305526036	0.78222159715577
7.9499458499072	0.78222160885114
7.9352159343568	0.78222162059291
7.9205405019815	0.78222163237985
7.9059192510549	0.78222164421071
7.8913518820742	0.78222165608427
7.8768380977404	0.78222166799928
7.8623776029373	0.78222167995448
7.8479701047120	0.78222169194863
7.8336153122550	0.78222170398046
7.8193129368805	0.78222171604871
7.8050626920073	0.78222172815211
7.7908642931393	0.78222174028939
7.7767174578470	0.78222175245926
7.7626219057483	0.78222176466045
7.7485773584906	0.78222177689167
7.7345835397317	0.78222178915163
7.7206401751223	0.78222180143903
7.7067469922879	0.78222181375258
7.6929037208109	0.78222182609097
7.6791100922131	0.78222183845291
7.6653658399386	0.78222185083708
7.6516706993364	0.78222186324217
7.6380244076433	0.78222187566687
7.6244267039674	0.78222188810987
7.6108773292714	0.78222190056983
7.5973760263558	0.78222191304545
7.5839225398432	0.78222192553539
7.5705166161616	0.78222193803833
7.5571580035291	0.78222195055294
7.5438464519376	0.78222196307789
7.5305817131374	0.78222197561184
7.5173635406219	0.78222198815347
7.5041916896120	0.78222200070143
7.4910659170415	0.78222201325439
7.4779859815415	0.78222202581101
7.4649516434263	0.78222203836995
7.4519626646781	0.78222205092986
7.4390188089330	0.78222206348941
7.4261198414664	0.78222207604725
7.4132655291790	0.78222208860204
7.4004556405826	0.78222210115243
7.3876899457861	0.78222211369708
7.3749682164822	0.78222212623465
7.3622902259332	0.78222213876378
7.3496557489581	0.78222215128314
7.3370645619187	0.78222216379138
7.3245164427071	0.78222217628714
7.3120111707317	0.78222218876910
7.2995485269053	0.78222220123590
7.2871282936315	0.78222221368620
7.2747502547925	0.78222222611866
7.2624141957364	0.78222223853194
7.2501199032648	0.78222225092469
7.2378671656205	0.78222226329558
7.2256557724753	0.78222227564327
7.2134855149182	0.78222228796642
7.2013561854432	0.78222230026369
7.1892675779376	0.78222231253375
7.1772194876706	0.78222232477527
7.1652117112811	0.78222233698692
7.1532440467669	0.78222234916736
7.1413162934731	0.78222236131529
7.1294282520809	0.78222237342936
7.1175797245964	0.78222238550826
7.1057705143399	0.78222239755066
7.0940004259347	0.78222240955526
7.0822692652965	0.78222242152074
7.0705768396226	0.78222243344579
7.0589229573817	0.78222244532909
7.0473074283028	0.78222245716935
7.0357300633654	0.78222246896527
7.0241906747891	0.78222248071553
7.0126890760234	0.78222249241886
7.0012250817375	0.78222250407396
6.9897985078107	0.78222251567953
6.9784091713222	0.78222252723431
6.9670568905415	0.78222253873700
6.9557414849188	0.78222255018633
6.9444627750753	0.78222256158103
6.9332205827937	0.78222257291983
6.9220147310090	0.78222258420147
6.9108450437990	0.78222259542469
6.8997113463751	0.78222260658824
6.8886134650735	0.78222261769086
6.8775512273457	0.78222262873132
6.8665244617499	0.78222263970836
6.8555329979419	0.78222265062077
6.8445766666667	0.78222266146730
6.8336552997493	0.78222267224673
6.8227687300865	0.78222268295785
6.8119167916383	0.78222269359944
6.8010993194192	0.78222270417029
6.7903161494904	0.78222271466921
6.7795671189507	0.78222272509498
6.7688520659291	0.78222273544644
6.7581708295762	0.78222274572238
6.7475232500563	0.78222275592163
6.7369091685393	0.78222276604302
6.7263284271932	0.78222277608539
6.7157808691756	0.78222278604756
6.7052663386267	0.78222279592840
6.6947846806610	0.78222280572675
6.6843357413601	0.78222281544147
6.6739193677649	0.78222282507144
6.6635354078684	0.78222283461551
6.6531837106081	0.78222284407259
6.6428641258586	0.78222285344154
6.6325765044248	0.78222286272128
6.6223206980340	0.78222287191069
6.6120965593295	0.78222288100869
6.6019039418630	0.78222289001421
6.5917427000879	0.78222289892615
6.5816126893524	0.78222290774346
6.5715137658922	0.78222291646507
6.5614457868243	0.78222292508993
6.5514086101399	0.78222293361700
6.5414020946978	0.78222294204524
6.5314261002179	0.78222295037363
6.5214804872743	0.78222295860114
6.5115651172893	0.78222296672676
6.5016798525266	0.78222297474949
6.4918245560849	0.78222298266833
6.4819990918919	0.78222299048230
6.4722033246978	0.78222299819042
6.4624371200690	0.78222300579172
6.4527003443823	0.78222301328523
6.4429928648184	0.78222302067002
6.4333145493562	0.78222302794513
6.4236652667667	0.78222303510963
6.4140448866068	0.78222304216259
6.4044532792138	0.78222304910311
6.3948903156997	0.78222305593027
6.3853558679446	0.78222306264318
6.3758498085921	0.78222306924095
6.3663720110427	0.78222307572271
6.3569223494487	0.78222308208757
6.3475006987084	0.78222308833469
6.3381069344609	0.78222309446321
6.3287409330800	0.78222310047230
6.3194025716695	0.78222310636112
6.3100917280572	0.78222311212886
6.3008082807902	0.78222311777470
6.2915521091291	0.78222312329784
6.2823230930427	0.78222312869750
6.2731211132036	0.78222313397290
6.2639460509820	0.78222313912326
6.2547977884415	0.78222314414782
6.2456762083333	0.78222314904584
6.2365811940919	0.78222315381658
6.2275126298297	0.78222315845931
6.2184704003319	0.78222316297330
6.2094543910522	0.78222316735786
6.2004644881075	0.78222317161229
6.1915005782734	0.78222317573590
6.1825625489792	0.78222317972801
6.1736502883031	0.78222318358796
6.1647636849681	0.78222318731510
6.1559026283368	0.78222319090879
6.1470670084068	0.78222319436838
6.1382567158067	0.78222319769327
6.1294716417910	0.78222320088284
6.1207116782360	0.78222320393649
6.1119767176351	0.78222320685364
6.1032666530945	0.78222320963370
6.0945813783289	0.78222321227612
6.0859207876573	0.78222321478033
6.0772847759984	0.78222321714581
6.0686732388664	0.78222321937200
6.0600860723671	0.78222322145841
6.0515231731934	0.78222322340450
6.0429844386212	0.78222322520980
6.0344697665056	0.78222322687381
6.0259790552764	0.78222322839606
6.0175122039342	0.78222322977609
6.0090691120465	0.78222323101344
6.0006496797438	0.78222323210769
5.9922538077154	0.78222323305839
5.9838813972056	0.78222323386513
5.9755323500100	0.78222323452752
5.9672065684713	0.78222323504515
5.9589039554760	0.78222323541766
5.9506244144502	0.78222323564466
5.9423678493558	0.78222323572580
5.9341341646873	0.78222323566075
5.9259232654675	0.78222323544915
5.9177350572444	0.78222323509071
5.9095694460871	0.78222323458509
5.9014263385827	0.78222323393202
5.8933056418321	0.78222323313120
5.8852072634472	0.78222323218237
5.8771311115468	0.78222323108525
5.8690770947533	0.78222322983961
5.8610451221896	0.78222322844520
5.8530351034752	0.78222322690180
5.8450469487229	0.78222322520921
5.8370805685358	0.78222322336721
5.8291358740035	0.78222322137562
5.8212127766990	0.78222321923427
5.8133111886756	0.78222321694299
5.8054310224632	0.78222321450163
5.7975721910656	0.78222321191005
5.7897346079567	0.78222320916813
5.7819181870781	0.78222320627575
5.7741228428351	0.78222320323280
5.7663484900942	0.78222320003920
5.7585950441798	0.78222319669487
5.7508624208709	0.78222319319975
5.7431505363985	0.78222318955377
5.7354593074421	0.78222318575691
5.7277886511272	0.78222318180912
5.7201384850219	0.78222317771040
5.7125087271341	0.78222317346073
5.7048992959087	0.78222316906013
5.6973101102242	0.78222316450862
5.6897410893908	0.78222315980623
5.6821921531463	0.78222315495300
5.6746632216544	0.78222314994899
5.6671542155009	0.78222314479427
5.6596650556919	0.78222313948891
5.6521956636501	0.78222313403302
5.6447459612126	0.78222312842670
5.6373158706281	0.78222312267007
5.6299053145540	0.78222311676325
5.6225142160540	0.78222311070639
5.6151424985952	0.78222310449965
5.6077900860456	0.78222309814318
5.6004569026714	0.78222309163717
5.5931428731343	0.78222308498180
5.5858479224893	0.78222307817728
5.5785719761816	0.78222307122383
5.5713149600446	0.78222306412167
5.5640768002970	0.78222305687104
5.5568574235403	0.78222304947219
5.5496567567568	0.78222304192538
5.5424747273063	0.78222303423088
5.5353112629247	0.78222302638899
5.5281662917204	0.78222301840000
5.5210397421731	0.78222301026421
5.5139315431304	0.78222300198196
5.5068416238060	0.78222299355358
5.4997699137773	0.78222298497941
5.4927163429828	0.78222297625980
5.4856808417200	0.78222296739513
5.4786633406433	0.78222295838578
5.4716637707611	0.78222294923213
5.4646820634342	0.78222293993460
5.4577181503732	0.78222293049359
5.4507719636364	0.78222292090953
5.4438434356274	0.78222291118287
5.4369324990932	0.78222290131405
5.4300390871219	0.78222289130353
5.4231631331404	0.78222288115178
5.4163045709124	0.78222287085928
5.4094633345363	0.78222286042654
5.4026393584430	0.78222284985405
5.3958325773938	0.78222283914234
5.3890429264785	0.78222282829193
5.3822703411131	0.78222281730336
5.3755147570378	0.78222280617717
5.3687761103152	0.78222279491394
5.3620543373278	0.78222278351423
5.3553493747767	0.78222277197863
5.3486611596789	0.78222276030772
5.3419896293656	0.78222274850212
5.3353347214807	0.78222273656243
5.3286963739780	0.78222272448929
5.3220745251198	0.78222271228333
5.3154691134752	0.78222269994519
5.3088800779175	0.78222268747553
5.3023073576229	0.78222267487502
5.2957508920685	0.78222266214434
5.2892106210303	0.78222264928417
5.2826864845815	0.78222263629522
5.2761784230905	0.78222262317818
5.2696863772192	0.78222260993379
5.2632102879213	0.78222259656276
5.2567500964405	0.78222258306584
5.2503057443082	0.78222256944377
5.2438771733427	0.78222255569731
5.2374643256464	0.78222254182723
5.2310671436050	0.78222252783430
5.2246855698850	0.78222251371931
5.2183195474326	0.78222249948307
5.2119690194715	0.78222248512636
5.2056339295016	0.78222247065002
5.1993142212973	0.78222245605485
5.1930098389052	0.78222244134170
5.1867207266436	0.78222242651141
5.1804468290997	0.78222241156483
5.1741880911288	0.78222239650281
5.1679444578521	0.78222238132624
5.1617158746556	0.78222236603598
5.1555022871883	0.78222235063292
5.1493036413604	0.78222233511797
5.1431198833419	0.78222231949201
5.1369509595613	0.78222230375597
5.1307968167037	0.78222228791077
5.1246574017094	0.78222227195733
5.1185326617722	0.78222225589660
5.1124225443383	0.78222223972950
5.1063269971044	0.78222222345701
5.1002459680163	0.78222220708008
5.0941794052676	0.78222219059969
5.0881272572980	0.78222217401679
5.0820894727920	0.78222215733239
5.0760660006773	0.78222214054747
5.0700567901235	0.78222212366304
5.0640617905405	0.78222210668009
5.0580809515775	0.78222208959965
5.0521142231210	0.78222207242273
5.0461615552937	0.78222205515036
5.0402228984533	0.78222203778359
5.0342982031906	0.78222202032344
5.0283874203287	0.78222200277096
5.0224905009214	0.78222198512723
5.0166073962517	0.78222196739328
5.0107380578305	0.78222194957021
5.0048824373957	0.78222193165907
4.9990404869101	0.78222191366095
4.9932121585610	0.78222189557694
4.9873974047579	0.78222187740813
4.9815961781323	0.78222185915561
4.9758084315353	0.78222184082050
4.9700341180371	0.78222182240391
4.9642731909256	0.78222180390695
4.9585256037049	0.78222178533074
4.9527913100942	0.78222176667641
4.9470702640264	0.78222174794509
4.9413624196473	0.78222172913793
4.9356677313138	0.78222171025605
4.9299861535932	0.78222169130062
4.9243176412615	0.78222167227277
4.9186621493027	0.78222165317368
4.9130196329072	0.78222163400450
4.9073900474709	0.78222161476639
4.9017733485939	0.78222159546053
4.8961694920790	0.78222157608809
4.8905784339315	0.78222155665026
4.8850001303569	0.78222153714820
4.8794345377604	0.78222151758312
4.8738816127459	0.78222149795620
4.8683413121143	0.78222147826863
4.8628135928629	0.78222145852161
4.8572984121841	0.78222143871634
4.8517957274640	0.78222141885403
4.8463054962819	0.78222139893588
4.8408276764088	0.78222137896311
4.8353622258065	0.78222135893692
