#Parameters = {thARC=0; nARC=1.75; thsub=1; p=1; nSub=2.75}
#"Wavelength / um"	"T (397) [Real Part]"
#---------------------------------------
14.989622900000	0.78222132822813
14.937342202292	0.78222132599094
14.885424925521	0.78222132360915
14.833867293419	0.78222132108625
14.782665581854	0.78222131842574
14.731816117936	0.78222131563106
14.681315279138	0.78222131270566
14.631159492435	0.78222130965294
14.581345233463	0.78222130647630
14.531869025691	0.78222130317911
14.482727439614	0.78222129976471
14.433917091960	0.78222129623642
14.385434644914	0.78222129259755
14.337276805356	0.78222128885137
14.289440324118	0.78222128500113
14.241921995249	0.78222128105007
14.194718655303	0.78222127700140
14.147827182633	0.78222127285830
14.101244496707	0.78222126862393
14.054967557431	0.78222126430143
14.008993364486	0.78222125989392
13.963318956684	0.78222125540449
13.917941411328	0.78222125083620
13.872857843591	0.78222124619211
13.828065405904	0.78222124147523
13.783561287356	0.78222123668856
13.739342713107	0.78222123183508
13.695406943810	0.78222122691773
13.651751275046	0.78222122193945
13.608373036768	0.78222121690313
13.565269592760	0.78222121181165
13.522438340099	0.78222120666788
13.479876708633	0.78222120147463
13.437582160466	0.78222119623472
13.395552189455	0.78222119095093
13.353784320713	0.78222118562603
13.312276110124	0.78222118026273
13.271025143869	0.78222117486376
13.230029037952	0.78222116943180
13.189285437747	0.78222116396952
13.148792017544	0.78222115847954
13.108546480105	0.78222115296450
13.068546556234	0.78222114742696
13.028790004346	0.78222114186951
12.989274610052	0.78222113629468
12.949998185745	0.78222113070499
12.910958570198	0.78222112510293
12.872153628167	0.78222111949097
12.833581250000	0.78222111387155
12.795239351259	0.78222110824709
12.757125872340	0.78222110261998
12.719238778108	0.78222109699260
12.681576057530	0.78222109136729
12.644135723323	0.78222108574638
12.606915811606	0.78222108013215
12.569914381551	0.78222107452688
12.533129515050	0.78222106893282
12.496559316382	0.78222106335219
12.460201911887	0.78222105778719
12.424055449648	0.78222105224000
12.388118099174	0.78222104671276
12.352388051092	0.78222104120759
12.316863516845	0.78222103572661
12.281542728390	0.78222103027188
12.246423937908	0.78222102484546
12.211505417515	0.78222101944938
12.176785458976	0.78222101408563
12.142262373431	0.78222100875619
12.107934491115	0.78222100346303
12.073800161095	0.78222099820806
12.039857751004	0.78222099299319
12.006105646776	0.78222098782031
11.972542252396	0.78222098269127
11.939165989646	0.78222097760791
11.905975297855	0.78222097257202
11.872968633663	0.78222096758539
11.840144470774	0.78222096264978
11.807501299724	0.78222095776693
11.775037627651	0.78222095293854
11.742751978065	0.78222094816631
11.710642890625	0.78222094345189
11.678708920919	0.78222093879692
11.646948640249	0.78222093420301
11.615360635413	0.78222092967176
11.583943508501	0.78222092520473
11.552695876686	0.78222092080347
11.521616372022	0.78222091646947
11.490703641242	0.78222091220426
11.459956345566	0.78222090800928
11.429373160503	0.78222090388599
11.398952775665	0.78222089983581
11.368693894577	0.78222089586014
11.338595234493	0.78222089196034
11.308655526217	0.78222088813778
11.278873513920	0.78222088439378
11.249247954972	0.78222088072964
11.219777619760	0.78222087714665
11.190461291527	0.78222087364605
11.161297766195	0.78222087022908
11.132285852209	0.78222086689696
11.103424370370	0.78222086365086
11.074712153676	0.78222086049195
11.046148047163	0.78222085742137
11.017730907755	0.78222085444023
10.989459604106	0.78222085154964
10.961333016453	0.78222084875065
10.933350036470	0.78222084604432
10.905509567115	0.78222084343167
10.877810522496	0.78222084091370
10.850251827723	0.78222083849139
10.822832418773	0.78222083616570
10.795551242348	0.78222083393756
10.768407255747	0.78222083180788
10.741399426729	0.78222082977755
10.714526733381	0.78222082784743
10.687788163993	0.78222082601837
10.661182716927	0.78222082429118
10.634709400497	0.78222082266668
10.608367232838	0.78222082114562
10.582155241793	0.78222081972878
10.556072464789	0.78222081841687
10.530117948718	0.78222081721062
10.504290749825	0.78222081611070
10.478589933590	0.78222081511779
10.453014574616	0.78222081423253
10.427563756522	0.78222081345555
10.402236571825	0.78222081278744
10.377032121841	0.78222081222879
10.351949516575	0.78222081178015
10.326987874612	0.78222081144206
10.302146323024	0.78222081121505
10.277423997257	0.78222081109960
10.252820041040	0.78222081109619
10.228333606278	0.78222081120527
10.203963852961	0.78222081142728
10.179709949066	0.78222081176263
10.155571070461	0.78222081221170
10.131546400811	0.78222081277487
10.107635131490	0.78222081345249
10.083836461487	0.78222081424490
10.060149597315	0.78222081515238
10.036573752929	0.78222081617525
10.013108149633	0.78222081731376
9.9897520159947	0.78222081856817
9.9665045877660	0.78222081993871
9.9433651077944	0.78222082142558
9.9203328259431	0.78222082302897
9.8974069990096	0.78222082474906
9.8745868906456	0.78222082658599
9.8518717712783	0.78222082853990
9.8292609180328	0.78222083061089
9.8067536146549	0.78222083279907
9.7843491514360	0.78222083510450
9.7620468251384	0.78222083752724
9.7398459389214	0.78222084006732
9.7177458022690	0.78222084272477
9.6957457309185	0.78222084549957
9.6738450467893	0.78222084839172
9.6520430779137	0.78222085140117
9.6303391583681	0.78222085452786
9.6087326282051	0.78222085777172
9.5872228333866	0.78222086113266
9.5658091257179	0.78222086461056
9.5444908627826	0.78222086820529
9.5232674078780	0.78222087191672
9.5021381299525	0.78222087574467
9.4811024035421	0.78222087968896
9.4601596087094	0.78222088374939
9.4393091309824	0.78222088792575
9.4185503612944	0.78222089221780
9.3978826959248	0.78222089662529
9.3773055364404	0.78222090114795
9.3568182896380	0.78222090578550
9.3364203674868	0.78222091053763
9.3161111870727	0.78222091540403
9.2958901705426	0.78222092038436
9.2757567450495	0.78222092547828
9.2557103426984	0.78222093068540
9.2357504004929	0.78222093600536
9.2158763602828	0.78222094143775
9.1960876687117	0.78222094698215
9.1763837771656	0.78222095263814
9.1567641417227	0.78222095840527
9.1372282231027	0.78222096428307
9.1177754866180	0.78222097027108
9.0984054021244	0.78222097636878
9.0791174439733	0.78222098257569
9.0599110909640	0.78222098889127
9.0407858262967	0.78222099531498
9.0217411375263	0.78222100184628
9.0027765165165	0.78222100848460
8.9838914593947	0.78222101522935
8.9650854665072	0.78222102207994
8.9463580423754	0.78222102903576
8.9277086956522	0.78222103609618
8.9091369390788	0.78222104326057
8.8906422894425	0.78222105052828
8.8722242675348	0.78222105789863
8.8538823981099	0.78222106537096
8.8356162098438	0.78222107294456
8.8174252352941	0.78222108061873
8.7993090108600	0.78222108839275
8.7812670767428	0.78222109626588
8.7632989769073	0.78222110423740
8.7454042590432	0.78222111230652
8.7275824745269	0.78222112047249
8.7098331783847	0.78222112873452
8.6921559292549	0.78222113709182
8.6745502893519	0.78222114554357
8.6570158244297	0.78222115408896
8.6395521037464	0.78222116272716
8.6221587000288	0.78222117145731
8.6048351894374	0.78222118027858
8.5875811515325	0.78222118919008
8.5703961692396	0.78222119819094
8.5532798288160	0.78222120728027
8.5362317198178	0.78222121645717
8.5192514350668	0.78222122572073
8.5023385706183	0.78222123507002
8.4854927257288	0.78222124450411
8.4687135028249	0.78222125402206
8.4520005074711	0.78222126362291
8.4353533483399	0.78222127330570
8.4187716371806	0.78222128306945
8.4022549887892	0.78222129291317
8.3858030209790	0.78222130283587
8.3694153545505	0.78222131283655
8.3530916132627	0.78222132291419
8.3368314238042	0.78222133306776
8.3206344157646	0.78222134329624
8.3045002216066	0.78222135359858
8.2884284766381	0.78222136397373
8.2724188189845	0.78222137442062
8.2564708895621	0.78222138493819
8.2405843320506	0.78222139552536
8.2247587928669	0.78222140618104
8.2089939211391	0.78222141690413
8.1932893686800	0.78222142769354
8.1776447899618	0.78222143854815
8.1620598420909	0.78222144946685
8.1465341847826	0.78222146044849
8.1310674803363	0.78222147149196
8.1156593936113	0.78222148259610
8.1003095920022	0.78222149375977
8.0850177454153	0.78222150498180
8.0697835262450	0.78222151626104
8.0546066093498	0.78222152759631
8.0394866720300	0.78222153898644
8.0244233940043	0.78222155043024
8.0094164573871	0.78222156192651
7.9944655466667	0.78222157347406
7.9795703486825	0.78222158507168
7.9647305526036	0.78222159671817
7.9499458499072	0.78222160841230
7.9352159343568	0.78222162015286
7.9205405019815	0.78222163193862
7.9059192510549	0.78222164376834
7.8913518820742	0.78222165564078
7.8768380977404	0.78222166755470
7.8623776029373	0.78222167950884
7.8479701047120	0.78222169150196
7.8336153122550	0.78222170353280
7.8193129368805	0.78222171560008
7.8050626920073	0.78222172770255
7.7908642931393	0.78222173983892
7.7767174578470	0.78222175200791
7.7626219057483	0.78222176420826
7.7485773584906	0.78222177643866
7.7345835397317	0.78222178869783
7.7206401751223	0.78222180098448
7.7067469922879	0.78222181329731
7.6929037208109	0.78222182563501
7.6791100922131	0.78222183799628
7.6653658399386	0.78222185037982
7.6516706993364	0.78222186278431
7.6380244076433	0.78222187520844
7.6244267039674	0.78222188765090
7.6108773292714	0.78222190011035
7.5973760263558	0.78222191258549
7.5839225398432	0.78222192507498
7.5705166161616	0.78222193757750
7.5571580035291	0.78222195009172
7.5438464519376	0.78222196261632
7.5305817131374	0.78222197514995
7.5173635406219	0.78222198769128
7.5041916896120	0.78222200023897
7.4910659170415	0.78222201279170
7.4779859815415	0.78222202534811
7.4649516434263	0.78222203790688
7.4519626646781	0.78222205046665
7.4390188089330	0.78222206302609
7.4261198414664	0.78222207558385
7.4132655291790	0.78222208813858
7.4004556405826	0.78222210068896
7.3876899457861	0.78222211323362
7.3749682164822	0.78222212577122
7.3622902259332	0.78222213830043
7.3496557489581	0.78222215081989
7.3370645619187	0.78222216332825
7.3245164427071	0.78222217582418
7.3120111707317	0.78222218830633
7.2995485269053	0.78222220077335
7.2871282936315	0.78222221322391
7.2747502547925	0.78222222565665
7.2624141957364	0.78222223807024
7.2501199032648	0.78222225046334
7.2378671656205	0.78222226283460
7.2256557724753	0.78222227518269
7.2134855149182	0.78222228750627
7.2013561854432	0.78222229980400
7.1892675779376	0.78222231207456
7.1772194876706	0.78222232431660
7.1652117112811	0.78222233652880
7.1532440467669	0.78222234870983
7.1413162934731	0.78222236085836
7.1294282520809	0.78222237297307
7.1175797245964	0.78222238505264
7.1057705143399	0.78222239709575
7.0940004259347	0.78222240910108
7.0822692652965	0.78222242106732
7.0705768396226	0.78222243299315
7.0589229573817	0.78222244487727
7.0473074283028	0.78222245671838
7.0357300633654	0.78222246851517
7.0241906747891	0.78222248026634
7.0126890760234	0.78222249197060
7.0012250817375	0.78222250362666
6.9897985078107	0.78222251523323
6.9784091713222	0.78222252678902
6.9670568905415	0.78222253829276
6.9557414849188	0.78222254974317
6.9444627750753	0.78222256113897
6.9332205827937	0.78222257247891
6.9220147310090	0.78222258376171
6.9108450437990	0.78222259498612
6.8997113463751	0.78222260615088
6.8886134650735	0.78222261725475
6.8775512273457	0.78222262829648
6.8665244617499	0.78222263927482
6.8555329979419	0.78222265018856
6.8445766666667	0.78222266103644
6.8336552997493	0.78222267181726
6.8227687300865	0.78222268252979
6.8119167916383	0.78222269317282
6.8010993194192	0.78222270374514
6.7903161494904	0.78222271424554
6.7795671189507	0.78222272467284
6.7688520659291	0.78222273502584
6.7581708295762	0.78222274530335
6.7475232500563	0.78222275550420
6.7369091685393	0.78222276562722
6.7263284271932	0.78222277567124
6.7157808691756	0.78222278563509
6.7052663386267	0.78222279551763
6.6947846806610	0.78222280531771
6.6843357413601	0.78222281503419
6.6739193677649	0.78222282466594
6.6635354078684	0.78222283421182
6.6531837106081	0.78222284367073
6.6428641258586	0.78222285304154
6.6325765044248	0.78222286232316
6.6223206980340	0.78222287151448
6.6120965593295	0.78222288061442
6.6019039418630	0.78222288962189
6.5917427000879	0.78222289853581
6.5816126893524	0.78222290735513
6.5715137658922	0.78222291607877
6.5614457868243	0.78222292470569
6.5514086101399	0.78222293323484
6.5414020946978	0.78222294166519
6.5314261002179	0.78222294999570
6.5214804872743	0.78222295822536
6.5115651172893	0.78222296635316
6.5016798525266	0.78222297437809
6.4918245560849	0.78222298229915
6.4819990918919	0.78222299011537
6.4722033246978	0.78222299782575
6.4624371200690	0.78222300542934
6.4527003443823	0.78222301292517
6.4429928648184	0.78222302031229
6.4333145493562	0.78222302758976
6.4236652667667	0.78222303475664
6.4140448866068	0.78222304181201
6.4044532792138	0.78222304875495
6.3948903156997	0.78222305558456
6.3853558679446	0.78222306229994
6.3758498085921	0.78222306890020
6.3663720110427	0.78222307538446
6.3569223494487	0.78222308175185
6.3475006987084	0.78222308800153
6.3381069344609	0.78222309413262
6.3287409330800	0.78222310014430
6.3194025716695	0.78222310603574
6.3100917280572	0.78222311180611
6.3008082807902	0.78222311745461
6.2915521091291	0.78222312298043
6.2823230930427	0.78222312838278
6.2731211132036	0.78222313366089
6.2639460509820	0.78222313881398
6.2547977884415	0.78222314384130
6.2456762083333	0.78222314874209
6.2365811940919	0.78222315351562
6.2275126298297	0.78222315816115
6.2184704003319	0.78222316267797
6.2094543910522	0.78222316706538
6.2004644881075	0.78222317132267
6.1915005782734	0.78222317544916
6.1825625489792	0.78222317944417
6.1736502883031	0.78222318330704
6.1647636849681	0.78222318703712
6.1559026283368	0.78222319063375
6.1470670084068	0.78222319409632
6.1382567158067	0.78222319742419
6.1294716417910	0.78222320061676
6.1207116782360	0.78222320367343
6.1119767176351	0.78222320659361
6.1032666530945	0.78222320937673
6.0945813783289	0.78222321202221
6.0859207876573	0.78222321452951
6.0772847759984	0.78222321689808
6.0686732388664	0.78222321912739
6.0600860723671	0.78222322121692
6.0515231731934	0.78222322316616
6.0429844386212	0.78222322497461
6.0344697665056	0.78222322664180
6.0259790552764	0.78222322816723
6.0175122039342	0.78222322955046
6.0090691120465	0.78222323079103
6.0006496797438	0.78222323188850
5.9922538077154	0.78222323284245
5.9838813972056	0.78222323365245
5.9755323500100	0.78222323431810
5.9672065684713	0.78222323483902
5.9589039554760	0.78222323521481
5.9506244144502	0.78222323544512
5.9423678493558	0.78222323552958
5.9341341646873	0.78222323546786
5.9259232654675	0.78222323525961
5.9177350572444	0.78222323490451
5.9095694460871	0.78222323440227
5.9014263385827	0.78222323375257
5.8933056418321	0.78222323295514
5.8852072634472	0.78222323200971
5.8771311115468	0.78222323091600
5.8690770947533	0.78222322967377
5.8610451221896	0.78222322828280
5.8530351034752	0.78222322674284
5.8450469487229	0.78222322505369
5.8370805685358	0.78222322321515
5.8291358740035	0.78222322122704
5.8212127766990	0.78222321908916
5.8133111886756	0.78222321680137
5.8054310224632	0.78222321436351
5.7975721910656	0.78222321177543
5.7897346079567	0.78222320903702
5.7819181870781	0.78222320614816
5.7741228428351	0.78222320310874
5.7663484900942	0.78222319991868
5.7585950441798	0.78222319657790
5.7508624208709	0.78222319308632
5.7431505363985	0.78222318944390
5.7354593074421	0.78222318565060
5.7277886511272	0.78222318170639
5.7201384850219	0.78222317761124
5.7125087271341	0.78222317336516
5.7048992959087	0.78222316896815
5.6973101102242	0.78222316442023
5.6897410893908	0.78222315972144
5.6821921531463	0.78222315487182
5.6746632216544	0.78222314987142
5.6671542155009	0.78222314472031
5.6596650556919	0.78222313941858
5.6521956636501	0.78222313396632
5.6447459612126	0.78222312836363
5.6373158706281	0.78222312261063
5.6299053145540	0.78222311670745
5.6225142160540	0.78222311065423
5.6151424985952	0.78222310445112
5.6077900860456	0.78222309809830
5.6004569026714	0.78222309159594
5.5931428731343	0.78222308494422
5.5858479224893	0.78222307814336
5.5785719761816	0.78222307119357
5.5713149600446	0.78222306409507
5.5640768002970	0.78222305684809
5.5568574235403	0.78222304945290
5.5496567567568	0.78222304190976
5.5424747273063	0.78222303421892
5.5353112629247	0.78222302638070
5.5281662917204	0.78222301839537
5.5210397421731	0.78222301026325
5.5139315431304	0.78222300198467
5.5068416238060	0.78222299355995
5.4997699137773	0.78222298498944
5.4927163429828	0.78222297627350
5.4856808417200	0.78222296741250
5.4786633406433	0.78222295840681
5.4716637707611	0.78222294925683
5.4646820634342	0.78222293996295
5.4577181503732	0.78222293052561
5.4507719636364	0.78222292094521
5.4438434356274	0.78222291122220
5.4369324990932	0.78222290135703
5.4300390871219	0.78222289135016
5.4231631331404	0.78222288120206
5.4163045709124	0.78222287091321
5.4094633345363	0.78222286048411
5.4026393584430	0.78222284991527
5.3958325773938	0.78222283920719
5.3890429264785	0.78222282836041
5.3822703411131	0.78222281737547
5.3755147570378	0.78222280625291
5.3687761103152	0.78222279499329
5.3620543373278	0.78222278359720
5.3553493747767	0.78222277206521
5.3486611596789	0.78222276039790
5.3419896293656	0.78222274859590
5.3353347214807	0.78222273665981
5.3286963739780	0.78222272459025
5.3220745251198	0.78222271238787
5.3154691134752	0.78222270005331
5.3088800779175	0.78222268758722
5.3023073576229	0.78222267499028
5.2957508920685	0.78222266226315
5.2892106210303	0.78222264940653
5.2826864845815	0.78222263642112
5.2761784230905	0.78222262330762
5.2696863772192	0.78222261006675
5.2632102879213	0.78222259669925
5.2567500964405	0.78222258320583
5.2503057443082	0.78222256958727
5.2438771733427	0.78222255584430
5.2374643256464	0.78222254197770
5.2310671436050	0.78222252798825
5.2246855698850	0.78222251387674
5.2183195474326	0.78222249964395
5.2119690194715	0.78222248529069
5.2056339295016	0.78222247081778
5.1993142212973	0.78222245622604
5.1930098389052	0.78222244151631
5.1867207266436	0.78222242668943
5.1804468290997	0.78222241174625
5.1741880911288	0.78222239668762
5.1679444578521	0.78222238151442
5.1617158746556	0.78222236622753
5.1555022871883	0.78222235082782
5.1493036413604	0.78222233531621
5.1431198833419	0.78222231969358
5.1369509595613	0.78222230396086
5.1307968167037	0.78222228811897
5.1246574017094	0.78222227216882
5.1185326617722	0.78222225611136
5.1124225443383	0.78222223994754
5.1063269971044	0.78222222367830
5.1002459680163	0.78222220730462
5.0941794052676	0.78222219082744
5.0881272572980	0.78222217424777
5.0820894727920	0.78222215756657
5.0760660006773	0.78222214078483
5.0700567901235	0.78222212390357
5.0640617905405	0.78222210692378
5.0580809515775	0.78222208984648
5.0521142231210	0.78222207267269
5.0461615552937	0.78222205540344
5.0402228984533	0.78222203803976
5.0342982031906	0.78222202058269
5.0283874203287	0.78222200303329
5.0224905009214	0.78222198539261
5.0166073962517	0.78222196766170
5.0107380578305	0.78222194984164
5.0048824373957	0.78222193193351
4.9990404869101	0.78222191393838
4.9932121585610	0.78222189585733
4.9873974047579	0.78222187769148
4.9815961781323	0.78222185944190
4.9758084315353	0.78222184110971
4.9700341180371	0.78222182269602
4.9642731909256	0.78222180420194
4.9585256037049	0.78222178562860
4.9527913100942	0.78222176697712
4.9470702640264	0.78222174824864
4.9413624196473	0.78222172944428
4.9356677313138	0.78222171056520
4.9299861535932	0.78222169161254
4.9243176412615	0.78222167258746
4.9186621493027	0.78222165349110
4.9130196329072	0.78222163432464
4.9073900474709	0.78222161508923
4.9017733485939	0.78222159578605
4.8961694920790	0.78222157641628
4.8905784339315	0.78222155698108
4.8850001303569	0.78222153748165
4.8794345377604	0.78222151791916
4.8738816127459	0.78222149829482
4.8683413121143	0.78222147860981
4.8628135928629	0.78222145886533
4.8572984121841	0.78222143906259
4.8517957274640	0.78222141920277
4.8463054962819	0.78222139928711
4.8408276764088	0.78222137931679
4.8353622258065	0.78222135929304
