#Parameters = {thARC=1; nARC=2.75; thsub=1; p=1; nSub=2.75}
#"Wavelength / um"	"T (426) [Real Part]"
#---------------------------------------
14.989622900000	0.78222246664430
14.937342202292	0.78222273907886
14.885424925521	0.78222299627378
14.833867293419	0.78222323858090
14.782665581854	0.78222346634852
14.731816117936	0.78222367992132
14.681315279138	0.78222387964041
14.631159492435	0.78222406584327
14.581345233463	0.78222423886376
14.531869025691	0.78222439903210
14.482727439614	0.78222454667489
14.433917091960	0.78222468211506
14.385434644914	0.78222480567190
14.337276805356	0.78222491766102
14.289440324118	0.78222501839439
14.241921995249	0.78222510818026
14.194718655303	0.78222518732325
14.147827182633	0.78222525612425
14.101244496707	0.78222531488051
14.054967557431	0.78222536388555
14.008993364486	0.78222540342921
13.963318956684	0.78222543379765
13.917941411328	0.78222545527333
13.872857843591	0.78222546813500
13.828065405904	0.78222547265773
13.783561287356	0.78222546911291
13.739342713107	0.78222545776820
13.695406943810	0.78222543888761
13.651751275046	0.78222541273145
13.608373036768	0.78222537955634
13.565269592760	0.78222533961524
13.522438340099	0.78222529315741
13.479876708633	0.78222524042846
13.437582160466	0.78222518167034
13.395552189455	0.78222511712134
13.353784320713	0.78222504701609
13.312276110124	0.78222497158560
13.271025143869	0.78222489105723
13.230029037952	0.78222480565472
13.189285437747	0.78222471559820
13.148792017544	0.78222462110418
13.108546480105	0.78222452238559
13.068546556234	0.78222441965177
13.028790004346	0.78222431310848
12.989274610052	0.78222420295794
12.949998185745	0.78222408939879
12.910958570198	0.78222397262615
12.872153628167	0.78222385283163
12.833581250000	0.78222373020331
12.795239351259	0.78222360492577
12.757125872340	0.78222347718013
12.719238778108	0.78222334714403
12.681576057530	0.78222321499168
12.644135723323	0.78222308089382
12.606915811606	0.78222294501780
12.569914381551	0.78222280752757
12.533129515050	0.78222266858369
12.496559316382	0.78222252834334
12.460201911887	0.78222238696038
12.424055449648	0.78222224458532
12.388118099174	0.78222210136537
12.352388051092	0.78222195744444
12.316863516845	0.78222181296318
12.281542728390	0.78222166805899
12.246423937908	0.78222152286602
12.211505417515	0.78222137751523
12.176785458976	0.78222123213437
12.142262373431	0.78222108684806
12.107934491115	0.78222094177773
12.073800161095	0.78222079704172
12.039857751004	0.78222065275524
12.006105646776	0.78222050903045
11.972542252396	0.78222036597643
11.939165989646	0.78222022369925
11.905975297855	0.78222008230196
11.872968633663	0.78221994188461
11.840144470774	0.78221980254432
11.807501299724	0.78221966437526
11.775037627651	0.78221952746868
11.742751978065	0.78221939191296
11.710642890625	0.78221925779360
11.678708920919	0.78221912519329
11.646948640249	0.78221899419189
11.615360635413	0.78221886486647
11.583943508501	0.78221873729138
11.552695876686	0.78221861153819
11.521616372022	0.78221848767580
11.490703641242	0.78221836577043
11.459956345566	0.78221824588563
11.429373160503	0.78221812808233
11.398952775665	0.78221801241889
11.368693894577	0.78221789895108
11.338595234493	0.78221778773213
11.308655526217	0.78221767881275
11.278873513920	0.78221757224120
11.249247954972	0.78221746806324
11.219777619760	0.78221736632222
11.190461291527	0.78221726705911
11.161297766195	0.78221717031248
11.132285852209	0.78221707611857
11.103424370370	0.78221698451131
11.074712153676	0.78221689552235
11.046148047163	0.78221680918107
11.017730907755	0.78221672551463
10.989459604106	0.78221664454801
10.961333016453	0.78221656630400
10.933350036470	0.78221649080327
10.905509567115	0.78221641806437
10.877810522496	0.78221634810379
10.850251827723	0.78221628093594
10.822832418773	0.78221621657326
10.795551242348	0.78221615502615
10.768407255747	0.78221609630309
10.741399426729	0.78221604041062
10.714526733381	0.78221598735337
10.687788163993	0.78221593713411
10.661182716927	0.78221588975378
10.634709400497	0.78221584521151
10.608367232838	0.78221580350463
10.582155241793	0.78221576462876
10.556072464789	0.78221572857778
10.530117948718	0.78221569534387
10.504290749825	0.78221566491758
10.478589933590	0.78221563728781
10.453014574616	0.78221561244189
10.427563756522	0.78221559036556
10.402236571825	0.78221557104303
10.377032121841	0.78221555445701
10.351949516575	0.78221554058872
10.326987874612	0.78221552941795
10.302146323024	0.78221552092305
10.277423997257	0.78221551508102
10.252820041040	0.78221551186746
10.228333606278	0.78221551125668
10.203963852961	0.78221551322168
10.179709949066	0.78221551773418
10.155571070461	0.78221552476467
10.131546400811	0.78221553428245
10.107635131490	0.78221554625561
10.083836461487	0.78221556065112
10.060149597315	0.78221557743480
10.036573752929	0.78221559657141
10.013108149633	0.78221561802463
9.9897520159947	0.78221564175710
9.9665045877660	0.78221566773047
9.9433651077944	0.78221569590542
9.9203328259431	0.78221572624166
9.8974069990096	0.78221575869801
9.8745868906456	0.78221579323238
9.8518717712783	0.78221582980183
9.8292609180328	0.78221586836257
9.8067536146549	0.78221590887004
9.7843491514360	0.78221595127886
9.7620468251384	0.78221599554292
9.7398459389214	0.78221604161541
9.7177458022690	0.78221608944878
9.6957457309185	0.78221613899485
9.6738450467893	0.78221619020479
9.6520430779137	0.78221624302915
9.6303391583681	0.78221629741789
9.6087326282051	0.78221635332044
9.5872228333866	0.78221641068565
9.5658091257179	0.78221646946191
9.5444908627826	0.78221652959710
9.5232674078780	0.78221659103866
9.5021381299525	0.78221665373359
9.4811024035421	0.78221671762849
9.4601596087094	0.78221678266960
9.4393091309824	0.78221684880277
9.4185503612944	0.78221691597355
9.3978826959248	0.78221698412719
9.3773055364404	0.78221705320866
9.3568182896380	0.78221712316265
9.3364203674868	0.78221719393364
9.3161111870727	0.78221726546593
9.2958901705426	0.78221733770358
9.2757567450495	0.78221741059055
9.2557103426984	0.78221748407063
9.2357504004929	0.78221755808750
9.2158763602828	0.78221763258476
9.1960876687117	0.78221770750596
9.1763837771656	0.78221778279457
9.1567641417227	0.78221785839406
9.1372282231027	0.78221793424790
9.1177754866180	0.78221801029958
9.0984054021244	0.78221808649263
9.0791174439733	0.78221816277065
9.0599110909640	0.78221823907733
9.0407858262967	0.78221831535644
9.0217411375263	0.78221839155192
9.0027765165165	0.78221846760782
8.9838914593947	0.78221854346837
8.9650854665072	0.78221861907801
8.9463580423754	0.78221869438135
8.9277086956522	0.78221876932324
8.9091369390788	0.78221884384879
8.8906422894425	0.78221891790336
8.8722242675348	0.78221899143258
8.8538823981099	0.78221906438241
8.8356162098438	0.78221913669910
8.8174252352941	0.78221920832926
8.7993090108600	0.78221927921985
8.7812670767428	0.78221934931817
8.7632989769073	0.78221941857196
8.7454042590432	0.78221948692931
8.7275824745269	0.78221955433878
8.7098331783847	0.78221962074933
8.6921559292549	0.78221968611039
8.6745502893519	0.78221975037186
8.6570158244297	0.78221981348412
8.6395521037464	0.78221987539804
8.6221587000288	0.78221993606501
8.6048351894374	0.78221999543696
8.5875811515325	0.78222005346635
8.5703961692396	0.78222011010618
8.5532798288160	0.78222016531006
8.5362317198178	0.78222021903214
8.5192514350668	0.78222027122719
8.5023385706183	0.78222032185058
8.4854927257288	0.78222037085831
8.4687135028249	0.78222041820701
8.4520005074711	0.78222046385394
8.4353533483399	0.78222050775704
8.4187716371806	0.78222054987491
8.4022549887892	0.78222059016682
8.3858030209790	0.78222062859273
8.3694153545505	0.78222066511332
8.3530916132627	0.78222069968996
8.3368314238042	0.78222073228475
8.3206344157646	0.78222076286052
8.3045002216066	0.78222079138084
8.2884284766381	0.78222081781002
8.2724188189845	0.78222084211314
8.2564708895621	0.78222086425604
8.2405843320506	0.78222088420533
8.2247587928669	0.78222090192841
8.2089939211391	0.78222091739346
8.1932893686800	0.78222093056947
8.1776447899618	0.78222094142622
8.1620598420909	0.78222094993432
8.1465341847826	0.78222095606517
8.1310674803363	0.78222095979102
8.1156593936113	0.78222096108494
8.1003095920022	0.78222095992083
8.0850177454153	0.78222095627343
8.0697835262450	0.78222095011835
8.0546066093498	0.78222094143200
8.0394866720300	0.78222093019171
8.0244233940043	0.78222091637561
8.0094164573871	0.78222089996274
7.9944655466667	0.78222088093297
7.9795703486825	0.78222085926708
7.9647305526036	0.78222083494668
7.9499458499072	0.78222080795429
7.9352159343568	0.78222077827329
7.9205405019815	0.78222074588796
7.9059192510549	0.78222071078346
7.8913518820742	0.78222067294581
7.8768380977404	0.78222063236195
7.8623776029373	0.78222058901970
7.8479701047120	0.78222054290776
7.8336153122550	0.78222049401572
7.8193129368805	0.78222044233409
7.8050626920073	0.78222038785423
7.7908642931393	0.78222033056842
7.7767174578470	0.78222027046982
7.7626219057483	0.78222020755248
7.7485773584906	0.78222014181135
7.7345835397317	0.78222007324225
7.7206401751223	0.78222000184192
7.7067469922879	0.78221992760795
7.6929037208109	0.78221985053884
7.6791100922131	0.78221977063396
7.6653658399386	0.78221968789356
7.6516706993364	0.78221960231878
7.6380244076433	0.78221951391163
7.6244267039674	0.78221942267498
7.6108773292714	0.78221932861258
7.5973760263558	0.78221923172906
7.5839225398432	0.78221913202988
7.5705166161616	0.78221902952139
7.5571580035291	0.78221892421077
7.5438464519376	0.78221881610606
7.5305817131374	0.78221870521616
7.5173635406219	0.78221859155078
7.5041916896120	0.78221847512050
7.4910659170415	0.78221835593671
7.4779859815415	0.78221823401162
7.4649516434263	0.78221810935828
7.4519626646781	0.78221798199054
7.4390188089330	0.78221785192306
7.4261198414664	0.78221771917131
7.4132655291790	0.78221758375154
7.4004556405826	0.78221744568082
7.3876899457861	0.78221730497696
7.3749682164822	0.78221716165857
7.3622902259332	0.78221701574504
7.3496557489581	0.78221686725650
7.3370645619187	0.78221671621383
7.3245164427071	0.78221656263867
7.3120111707317	0.78221640655340
7.2995485269053	0.78221624798112
7.2871282936315	0.78221608694566
7.2747502547925	0.78221592347155
7.2624141957364	0.78221575758405
7.2501199032648	0.78221558930908
7.2378671656205	0.78221541867327
7.2256557724753	0.78221524570394
7.2134855149182	0.78221507042905
7.2013561854432	0.78221489287724
7.1892675779376	0.78221471307779
7.1772194876706	0.78221453106063
7.1652117112811	0.78221434685632
7.1532440467669	0.78221416049603
7.1413162934731	0.78221397201155
7.1294282520809	0.78221378143527
7.1175797245964	0.78221358880017
7.1057705143399	0.78221339413980
7.0940004259347	0.78221319748830
7.0822692652965	0.78221299888036
7.0705768396226	0.78221279835121
7.0589229573817	0.78221259593662
7.0473074283028	0.78221239167289
7.0357300633654	0.78221218559684
7.0241906747891	0.78221197774578
7.0126890760234	0.78221176815752
7.0012250817375	0.78221155687036
6.9897985078107	0.78221134392306
6.9784091713222	0.78221112935483
6.9670568905415	0.78221091320533
6.9557414849188	0.78221069551467
6.9444627750753	0.78221047632337
6.9332205827937	0.78221025567236
6.9220147310090	0.78221003360296
6.9108450437990	0.78220981015689
6.8997113463751	0.78220958537625
6.8886134650735	0.78220935930348
6.8775512273457	0.78220913198138
6.8665244617499	0.78220890345309
6.8555329979419	0.78220867376208
6.8445766666667	0.78220844295211
6.8336552997493	0.78220821106726
6.8227687300865	0.78220797815188
6.8119167916383	0.78220774425063
6.8010993194192	0.78220750940838
6.7903161494904	0.78220727367028
6.7795671189507	0.78220703708171
6.7688520659291	0.78220679968828
6.7581708295762	0.78220656153580
6.7475232500563	0.78220632267028
6.7369091685393	0.78220608313791
6.7263284271932	0.78220584298506
6.7157808691756	0.78220560225826
6.7052663386267	0.78220536100417
6.6947846806610	0.78220511926960
6.6843357413601	0.78220487710148
6.6739193677649	0.78220463454683
6.6635354078684	0.78220439165277
6.6531837106081	0.78220414846652
6.6428641258586	0.78220390503533
6.6325765044248	0.78220366140655
6.6223206980340	0.78220341762754
6.6120965593295	0.78220317374568
6.6019039418630	0.78220292980841
6.5917427000879	0.78220268586314
6.5816126893524	0.78220244195727
6.5715137658922	0.78220219813818
6.5614457868243	0.78220195445323
6.5514086101399	0.78220171094972
6.5414020946978	0.78220146767488
6.5314261002179	0.78220122467589
6.5214804872743	0.78220098199981
6.5115651172893	0.78220073969364
6.5016798525266	0.78220049780423
6.4918245560849	0.78220025637834
6.4819990918919	0.78220001546258
6.4722033246978	0.78219977510339
6.4624371200690	0.78219953534707
6.4527003443823	0.78219929623976
6.4429928648184	0.78219905782738
6.4333145493562	0.78219882015567
6.4236652667667	0.78219858327017
6.4140448866068	0.78219834721617
6.4044532792138	0.78219811203875
6.3948903156997	0.78219787778273
6.3853558679446	0.78219764449267
6.3758498085921	0.78219741221289
6.3663720110427	0.78219718098738
6.3569223494487	0.78219695085987
6.3475006987084	0.78219672187377
6.3381069344609	0.78219649407220
6.3287409330800	0.78219626749791
6.3194025716695	0.78219604219335
6.3100917280572	0.78219581820059
6.3008082807902	0.78219559556137
6.2915521091291	0.78219537431704
6.2823230930427	0.78219515450856
6.2731211132036	0.78219493617652
6.2639460509820	0.78219471936108
6.2547977884415	0.78219450410201
6.2456762083333	0.78219429043864
6.2365811940919	0.78219407840988
6.2275126298297	0.78219386805418
6.2184704003319	0.78219365940954
6.2094543910522	0.78219345251351
6.2004644881075	0.78219324740313
6.1915005782734	0.78219304411500
6.1825625489792	0.78219284268519
6.1736502883031	0.78219264314930
6.1647636849681	0.78219244554240
6.1559026283368	0.78219224989903
6.1470670084068	0.78219205625322
6.1382567158067	0.78219186463845
6.1294716417910	0.78219167508766
6.1207116782360	0.78219148763324
6.1119767176351	0.78219130230699
6.1032666530945	0.78219111914016
6.0945813783289	0.78219093816343
6.0859207876573	0.78219075940685
6.0772847759984	0.78219058289993
6.0686732388664	0.78219040867154
6.0600860723671	0.78219023674994
6.0515231731934	0.78219006716279
6.0429844386212	0.78218989993711
6.0344697665056	0.78218973509930
6.0259790552764	0.78218957267511
6.0175122039342	0.78218941268966
6.0090691120465	0.78218925516740
6.0006496797438	0.78218910013213
5.9922538077154	0.78218894760699
5.9838813972056	0.78218879761445
5.9755323500100	0.78218865017630
5.9672065684713	0.78218850531365
5.9589039554760	0.78218836304693
5.9506244144502	0.78218822339586
5.9423678493558	0.78218808637949
5.9341341646873	0.78218795201614
5.9259232654675	0.78218782032346
5.9177350572444	0.78218769131834
5.9095694460871	0.78218756501700
5.9014263385827	0.78218744143492
5.8933056418321	0.78218732058686
5.8852072634472	0.78218720248684
5.8771311115468	0.78218708714818
5.8690770947533	0.78218697458344
5.8610451221896	0.78218686480445
5.8530351034752	0.78218675782230
5.8450469487229	0.78218665364733
5.8370805685358	0.78218655228916
5.8291358740035	0.78218645375663
5.8212127766990	0.78218635805784
5.8133111886756	0.78218626520015
5.8054310224632	0.78218617519015
5.7975721910656	0.78218608803368
5.7897346079567	0.78218600373582
5.7819181870781	0.78218592230090
5.7741228428351	0.78218584373248
5.7663484900942	0.78218576803336
5.7585950441798	0.78218569520557
5.7508624208709	0.78218562525040
5.7431505363985	0.78218555816837
5.7354593074421	0.78218549395922
5.7277886511272	0.78218543262193
5.7201384850219	0.78218537415475
5.7125087271341	0.78218531855513
5.7048992959087	0.78218526581978
5.6973101102242	0.78218521594463
5.6897410893908	0.78218516892487
5.6821921531463	0.78218512475492
5.6746632216544	0.78218508342844
5.6671542155009	0.78218504493836
5.6596650556919	0.78218500927682
5.6521956636501	0.78218497643523
5.6447459612126	0.78218494640424
5.6373158706281	0.78218491917376
5.6299053145540	0.78218489473295
5.6225142160540	0.78218487307024
5.6151424985952	0.78218485417330
5.6077900860456	0.78218483802909
5.6004569026714	0.78218482462380
5.5931428731343	0.78218481394293
5.5858479224893	0.78218480597123
5.5785719761816	0.78218480069274
5.5713149600446	0.78218479809077
5.5640768002970	0.78218479814793
5.5568574235403	0.78218480084612
5.5496567567568	0.78218480616653
5.5424747273063	0.78218481408964
5.5353112629247	0.78218482459525
5.5281662917204	0.78218483766248
5.5210397421731	0.78218485326974
5.5139315431304	0.78218487139478
5.5068416238060	0.78218489201467
5.4997699137773	0.78218491510581
5.4927163429828	0.78218494064394
5.4856808417200	0.78218496860417
5.4786633406433	0.78218499896091
5.4716637707611	0.78218503168799
5.4646820634342	0.78218506675854
5.4577181503732	0.78218510414513
5.4507719636364	0.78218514381964
5.4438434356274	0.78218518575340
5.4369324990932	0.78218522991708
5.4300390871219	0.78218527628079
5.4231631331404	0.78218532481403
5.4163045709124	0.78218537548573
5.4094633345363	0.78218542826422
5.4026393584430	0.78218548311728
5.3958325773938	0.78218554001215
5.3890429264785	0.78218559891548
5.3822703411131	0.78218565979342
5.3755147570378	0.78218572261155
5.3687761103152	0.78218578733495
5.3620543373278	0.78218585392819
5.3553493747767	0.78218592235531
5.3486611596789	0.78218599257988
5.3419896293656	0.78218606456498
5.3353347214807	0.78218613827320
5.3286963739780	0.78218621366667
5.3220745251198	0.78218629070707
5.3154691134752	0.78218636935563
5.3088800779175	0.78218644957314
5.3023073576229	0.78218653131998
5.2957508920685	0.78218661455610
5.2892106210303	0.78218669924105
5.2826864845815	0.78218678533399
5.2761784230905	0.78218687279368
5.2696863772192	0.78218696157854
5.2632102879213	0.78218705164661
5.2567500964405	0.78218714295558
5.2503057443082	0.78218723546281
5.2438771733427	0.78218732912532
5.2374643256464	0.78218742389984
5.2310671436050	0.78218751974278
5.2246855698850	0.78218761661026
5.2183195474326	0.78218771445813
5.2119690194715	0.78218781324195
5.2056339295016	0.78218791291706
5.1993142212973	0.78218801343853
5.1930098389052	0.78218811476120
5.1867207266436	0.78218821683972
5.1804468290997	0.78218831962850
5.1741880911288	0.78218842308178
5.1679444578521	0.78218852715360
5.1617158746556	0.78218863179786
5.1555022871883	0.78218873696827
5.1493036413604	0.78218884261843
5.1431198833419	0.78218894870180
5.1369509595613	0.78218905517171
5.1307968167037	0.78218916198141
5.1246574017094	0.78218926908404
5.1185326617722	0.78218937643268
5.1124225443383	0.78218948398033
5.1063269971044	0.78218959167996
5.1002459680163	0.78218969948448
5.0941794052676	0.78218980734679
5.0881272572980	0.78218991521979
5.0820894727920	0.78219002305635
5.0760660006773	0.78219013080940
5.0700567901235	0.78219023843186
5.0640617905405	0.78219034587673
5.0580809515775	0.78219045309704
5.0521142231210	0.78219056004590
5.0461615552937	0.78219066667652
5.0402228984533	0.78219077294218
5.0342982031906	0.78219087879629
5.0283874203287	0.78219098419240
5.0224905009214	0.78219108908416
5.0166073962517	0.78219119342542
5.0107380578305	0.78219129717015
5.0048824373957	0.78219140027255
4.9990404869101	0.78219150268697
4.9932121585610	0.78219160436799
4.9873974047579	0.78219170527042
4.9815961781323	0.78219180534929
4.9758084315353	0.78219190455988
4.9700341180371	0.78219200285774
4.9642731909256	0.78219210019871
4.9585256037049	0.78219219653888
4.9527913100942	0.78219229183469
4.9470702640264	0.78219238604286
4.9413624196473	0.78219247912047
4.9356677313138	0.78219257102492
4.9299861535932	0.78219266171399
4.9243176412615	0.78219275114581
4.9186621493027	0.78219283927892
4.9130196329072	0.78219292607223
4.9073900474709	0.78219301148508
4.9017733485939	0.78219309547723
4.8961694920790	0.78219317800887
4.8905784339315	0.78219325904066
4.8850001303569	0.78219333853369
4.8794345377604	0.78219341644956
4.8738816127459	0.78219349275035
4.8683413121143	0.78219356739862
4.8628135928629	0.78219364035748
4.8572984121841	0.78219371159054
4.8517957274640	0.78219378106196
4.8463054962819	0.78219384873646
4.8408276764088	0.78219391457930
4.8353622258065	0.78219397855635
