#Parameters = {thARC=0; nARC=3; thsub=1; p=1; nSub=2.75}
#"Wavelength / um"	"T (427) [Real Part]"
#---------------------------------------
14.989622900000	0.78222132792211
14.937342202292	0.78222132568593
14.885424925521	0.78222132330518
14.833867293419	0.78222132078336
14.782665581854	0.78222131812395
14.731816117936	0.78222131533041
14.681315279138	0.78222131240617
14.631159492435	0.78222130935465
14.581345233463	0.78222130617923
14.531869025691	0.78222130288329
14.482727439614	0.78222129947017
14.433917091960	0.78222129594320
14.385434644914	0.78222129230567
14.337276805356	0.78222128856086
14.289440324118	0.78222128471202
14.241921995249	0.78222128076239
14.194718655303	0.78222127671517
14.147827182633	0.78222127257355
14.101244496707	0.78222126834069
14.054967557431	0.78222126401973
14.008993364486	0.78222125961379
13.963318956684	0.78222125512595
13.917941411328	0.78222125055928
13.872857843591	0.78222124591683
13.828065405904	0.78222124120162
13.783561287356	0.78222123641664
13.739342713107	0.78222123156488
13.695406943810	0.78222122664928
13.651751275046	0.78222122167276
13.608373036768	0.78222121663824
13.565269592760	0.78222121154858
13.522438340099	0.78222120640665
13.479876708633	0.78222120121527
13.437582160466	0.78222119597725
13.395552189455	0.78222119069537
13.353784320713	0.78222118537240
13.312276110124	0.78222118001106
13.271025143869	0.78222117461407
13.230029037952	0.78222116918411
13.189285437747	0.78222116372385
13.148792017544	0.78222115823593
13.108546480105	0.78222115272295
13.068546556234	0.78222114718751
13.028790004346	0.78222114163217
12.989274610052	0.78222113605947
12.949998185745	0.78222113047193
12.910958570198	0.78222112487204
12.872153628167	0.78222111926226
12.833581250000	0.78222111364505
12.795239351259	0.78222110802282
12.757125872340	0.78222110239797
12.719238778108	0.78222109677285
12.681576057530	0.78222109114983
12.644135723323	0.78222108553122
12.606915811606	0.78222107991931
12.569914381551	0.78222107431638
12.533129515050	0.78222106872468
12.496559316382	0.78222106314643
12.460201911887	0.78222105758382
12.424055449648	0.78222105203903
12.388118099174	0.78222104651421
12.352388051092	0.78222104101149
12.316863516845	0.78222103553297
12.281542728390	0.78222103008071
12.246423937908	0.78222102465678
12.211505417515	0.78222101926319
12.176785458976	0.78222101390196
12.142262373431	0.78222100857506
12.107934491115	0.78222100328444
12.073800161095	0.78222099803204
12.039857751004	0.78222099281975
12.006105646776	0.78222098764946
11.972542252396	0.78222098252302
11.939165989646	0.78222097744226
11.905975297855	0.78222097240900
11.872968633663	0.78222096742501
11.840144470774	0.78222096249206
11.807501299724	0.78222095761187
11.775037627651	0.78222095278616
11.742751978065	0.78222094801662
11.710642890625	0.78222094330490
11.678708920919	0.78222093865264
11.646948640249	0.78222093406145
11.615360635413	0.78222092953294
11.583943508501	0.78222092506865
11.552695876686	0.78222092067013
11.521616372022	0.78222091633890
11.490703641242	0.78222091207646
11.459956345566	0.78222090788426
11.429373160503	0.78222090376376
11.398952775665	0.78222089971638
11.368693894577	0.78222089574351
11.338595234493	0.78222089184654
11.308655526217	0.78222088802680
11.278873513920	0.78222088428563
11.249247954972	0.78222088062433
11.219777619760	0.78222087704418
11.190461291527	0.78222087354644
11.161297766195	0.78222087013233
11.132285852209	0.78222086680307
11.103424370370	0.78222086355985
11.074712153676	0.78222086040382
11.046148047163	0.78222085733612
11.017730907755	0.78222085435788
10.989459604106	0.78222085147018
10.961333016453	0.78222084867409
10.933350036470	0.78222084597067
10.905509567115	0.78222084336093
10.877810522496	0.78222084084588
10.850251827723	0.78222083842649
10.822832418773	0.78222083610372
10.795551242348	0.78222083387851
10.768407255747	0.78222083175176
10.741399426729	0.78222082972436
10.714526733381	0.78222082779718
10.687788163993	0.78222082597106
10.661182716927	0.78222082424682
10.634709400497	0.78222082262526
10.608367232838	0.78222082110716
10.582155241793	0.78222081969326
10.556072464789	0.78222081838431
10.530117948718	0.78222081718100
10.504290749825	0.78222081608404
10.478589933590	0.78222081509409
10.453014574616	0.78222081421178
10.427563756522	0.78222081343775
10.402236571825	0.78222081277260
10.377032121841	0.78222081221690
10.351949516575	0.78222081177122
10.326987874612	0.78222081143609
10.302146323024	0.78222081121203
10.277423997257	0.78222081109954
10.252820041040	0.78222081109908
10.228333606278	0.78222081121111
10.203963852961	0.78222081143607
10.179709949066	0.78222081177437
10.155571070461	0.78222081222639
10.131546400811	0.78222081279251
10.107635131490	0.78222081347307
10.083836461487	0.78222081426841
10.060149597315	0.78222081517884
10.036573752929	0.78222081620464
10.013108149633	0.78222081734608
9.9897520159947	0.78222081860342
9.9665045877660	0.78222081997688
9.9433651077944	0.78222082146667
9.9203328259431	0.78222082307298
9.8974069990096	0.78222082479597
9.8745868906456	0.78222082663581
9.8518717712783	0.78222082859262
9.8292609180328	0.78222083066652
9.8067536146549	0.78222083285759
9.7843491514360	0.78222083516591
9.7620468251384	0.78222083759153
9.7398459389214	0.78222084013449
9.7177458022690	0.78222084279481
9.6957457309185	0.78222084557248
9.6738450467893	0.78222084846748
9.6520430779137	0.78222085147978
9.6303391583681	0.78222085460932
9.6087326282051	0.78222085785602
9.5872228333866	0.78222086121979
9.5658091257179	0.78222086470051
9.5444908627826	0.78222086829806
9.5232674078780	0.78222087201230
9.5021381299525	0.78222087584305
9.4811024035421	0.78222087979013
9.4601596087094	0.78222088385335
9.4393091309824	0.78222088803249
9.4185503612944	0.78222089232730
9.3978826959248	0.78222089673755
9.3773055364404	0.78222090126297
9.3568182896380	0.78222090590326
9.3364203674868	0.78222091065812
9.3161111870727	0.78222091552724
9.2958901705426	0.78222092051029
9.2757567450495	0.78222092560691
9.2557103426984	0.78222093081673
9.2357504004929	0.78222093613937
9.2158763602828	0.78222094157444
9.1960876687117	0.78222094712150
9.1763837771656	0.78222095278015
9.1567641417227	0.78222095854992
9.1372282231027	0.78222096443035
9.1177754866180	0.78222097042097
9.0984054021244	0.78222097652129
9.0791174439733	0.78222098273079
9.0599110909640	0.78222098904895
9.0407858262967	0.78222099547524
9.0217411375263	0.78222100200910
9.0027765165165	0.78222100864997
8.9838914593947	0.78222101539726
8.9650854665072	0.78222102225037
8.9463580423754	0.78222102920870
8.9277086956522	0.78222103627163
8.9091369390788	0.78222104343851
8.8906422894425	0.78222105070869
8.8722242675348	0.78222105808150
8.8538823981099	0.78222106555627
8.8356162098438	0.78222107313230
8.8174252352941	0.78222108080889
8.7993090108600	0.78222108858532
8.7812670767428	0.78222109646085
8.7632989769073	0.78222110443474
8.7454042590432	0.78222111250623
8.7275824745269	0.78222112067455
8.7098331783847	0.78222112893891
8.6921559292549	0.78222113729853
8.6745502893519	0.78222114575259
8.6570158244297	0.78222115430027
8.6395521037464	0.78222116294074
8.6221587000288	0.78222117167315
8.6048351894374	0.78222118049666
8.5875811515325	0.78222118941039
8.5703961692396	0.78222119841347
8.5532798288160	0.78222120750500
8.5362317198178	0.78222121668408
8.5192514350668	0.78222122594980
8.5023385706183	0.78222123530124
8.4854927257288	0.78222124473747
8.4687135028249	0.78222125425754
8.4520005074711	0.78222126386049
8.4353533483399	0.78222127354536
8.4187716371806	0.78222128331117
8.4022549887892	0.78222129315695
8.3858030209790	0.78222130308168
8.3694153545505	0.78222131308438
8.3530916132627	0.78222132316402
8.3368314238042	0.78222133331957
8.3206344157646	0.78222134355002
8.3045002216066	0.78222135385430
8.2884284766381	0.78222136423137
8.2724188189845	0.78222137468018
8.2564708895621	0.78222138519964
8.2405843320506	0.78222139578869
8.2247587928669	0.78222140644622
8.2089939211391	0.78222141717116
8.1932893686800	0.78222142796239
8.1776447899618	0.78222143881880
8.1620598420909	0.78222144973928
8.1465341847826	0.78222146072269
8.1310674803363	0.78222147176791
8.1156593936113	0.78222148287378
8.1003095920022	0.78222149403915
8.0850177454153	0.78222150526288
8.0697835262450	0.78222151654379
8.0546066093498	0.78222152788072
8.0394866720300	0.78222153927247
8.0244233940043	0.78222155071788
8.0094164573871	0.78222156221575
7.9944655466667	0.78222157376487
7.9795703486825	0.78222158536405
7.9647305526036	0.78222159701208
7.9499458499072	0.78222160870773
7.9352159343568	0.78222162044978
7.9205405019815	0.78222163223702
7.9059192510549	0.78222164406819
7.8913518820742	0.78222165594207
7.8768380977404	0.78222166785740
7.8623776029373	0.78222167981294
7.8479701047120	0.78222169180744
7.8336153122550	0.78222170383963
7.8193129368805	0.78222171590825
7.8050626920073	0.78222172801203
7.7908642931393	0.78222174014969
7.7767174578470	0.78222175231996
7.7626219057483	0.78222176452156
7.7485773584906	0.78222177675319
7.7345835397317	0.78222178901358
7.7206401751223	0.78222180130141
7.7067469922879	0.78222181361541
7.6929037208109	0.78222182595426
7.6791100922131	0.78222183831666
7.6653658399386	0.78222185070131
7.6516706993364	0.78222186310688
7.6380244076433	0.78222187553208
7.6244267039674	0.78222188797557
7.6108773292714	0.78222190043605
7.5973760263558	0.78222191291218
7.5839225398432	0.78222192540266
7.5705166161616	0.78222193790614
7.5571580035291	0.78222195042129
7.5438464519376	0.78222196294680
7.5305817131374	0.78222197548132
7.5173635406219	0.78222198802353
7.5041916896120	0.78222200057207
7.4910659170415	0.78222201312563
7.4779859815415	0.78222202568285
7.4649516434263	0.78222203824240
7.4519626646781	0.78222205080293
7.4390188089330	0.78222206336311
7.4261198414664	0.78222207592159
7.4132655291790	0.78222208847702
7.4004556405826	0.78222210102807
7.3876899457861	0.78222211357339
7.3749682164822	0.78222212611162
7.3622902259332	0.78222213864144
7.3496557489581	0.78222215116148
7.3370645619187	0.78222216367042
7.3245164427071	0.78222217616689
7.3120111707317	0.78222218864956
7.2995485269053	0.78222220111708
7.2871282936315	0.78222221356812
7.2747502547925	0.78222222600131
7.2624141957364	0.78222223841534
7.2501199032648	0.78222225080885
7.2378671656205	0.78222226318050
7.2256557724753	0.78222227552895
7.2134855149182	0.78222228785288
7.2013561854432	0.78222230015093
7.1892675779376	0.78222231242179
7.1772194876706	0.78222232466411
7.1652117112811	0.78222233687657
7.1532440467669	0.78222234905783
7.1413162934731	0.78222236120658
7.1294282520809	0.78222237332148
7.1175797245964	0.78222238540122
7.1057705143399	0.78222239744447
7.0940004259347	0.78222240944992
7.0822692652965	0.78222242141626
7.0705768396226	0.78222243334218
7.0589229573817	0.78222244522636
7.0473074283028	0.78222245706750
7.0357300633654	0.78222246886430
7.0241906747891	0.78222248061546
7.0126890760234	0.78222249231969
7.0012250817375	0.78222250397570
6.9897985078107	0.78222251558219
6.9784091713222	0.78222252713789
6.9670568905415	0.78222253864151
6.9557414849188	0.78222255009177
6.9444627750753	0.78222256148742
6.9332205827937	0.78222257282717
6.9220147310090	0.78222258410976
6.9108450437990	0.78222259533394
6.8997113463751	0.78222260649846
6.8886134650735	0.78222261760205
6.8775512273457	0.78222262864349
6.8665244617499	0.78222263962152
6.8555329979419	0.78222265053491
6.8445766666667	0.78222266138244
6.8336552997493	0.78222267216288
6.8227687300865	0.78222268287500
6.8119167916383	0.78222269351761
6.8010993194192	0.78222270408948
6.7903161494904	0.78222271458942
6.7795671189507	0.78222272501623
6.7688520659291	0.78222273536872
6.7581708295762	0.78222274564570
6.7475232500563	0.78222275584600
6.7369091685393	0.78222276596844
6.7263284271932	0.78222277601186
6.7157808691756	0.78222278597510
6.7052663386267	0.78222279585700
6.6947846806610	0.78222280565643
6.6843357413601	0.78222281537222
6.6739193677649	0.78222282500327
6.6635354078684	0.78222283454843
6.6531837106081	0.78222284400660
6.6428641258586	0.78222285337665
6.6325765044248	0.78222286265748
6.6223206980340	0.78222287184800
6.6120965593295	0.78222288094711
6.6019039418630	0.78222288995373
6.5917427000879	0.78222289886679
6.5816126893524	0.78222290768522
6.5715137658922	0.78222291640796
6.5614457868243	0.78222292503395
6.5514086101399	0.78222293356215
6.5414020946978	0.78222294199153
6.5314261002179	0.78222295032106
6.5214804872743	0.78222295854971
6.5115651172893	0.78222296667648
6.5016798525266	0.78222297470036
6.4918245560849	0.78222298262035
6.4819990918919	0.78222299043548
6.4722033246978	0.78222299814476
6.4624371200690	0.78222300574722
6.4527003443823	0.78222301324190
6.4429928648184	0.78222302062786
6.4333145493562	0.78222302790414
6.4236652667667	0.78222303506982
6.4140448866068	0.78222304212396
6.4044532792138	0.78222304906566
6.3948903156997	0.78222305589401
6.3853558679446	0.78222306260810
6.3758498085921	0.78222306920706
6.3663720110427	0.78222307569000
6.3569223494487	0.78222308205606
6.3475006987084	0.78222308830438
6.3381069344609	0.78222309443410
6.3287409330800	0.78222310044438
6.3194025716695	0.78222310633441
6.3100917280572	0.78222311210335
6.3008082807902	0.78222311775040
6.2915521091291	0.78222312327475
6.2823230930427	0.78222312867562
6.2731211132036	0.78222313395223
6.2639460509820	0.78222313910380
6.2547977884415	0.78222314412958
6.2456762083333	0.78222314902881
6.2365811940919	0.78222315380077
6.2275126298297	0.78222315844471
6.2184704003319	0.78222316295993
6.2094543910522	0.78222316734571
6.2004644881075	0.78222317160136
6.1915005782734	0.78222317572619
6.1825625489792	0.78222317971953
6.1736502883031	0.78222318358070
6.1647636849681	0.78222318730907
6.1559026283368	0.78222319090398
6.1470670084068	0.78222319436480
6.1382567158067	0.78222319769092
6.1294716417910	0.78222320088171
6.1207116782360	0.78222320393659
6.1119767176351	0.78222320685497
6.1032666530945	0.78222320963626
6.0945813783289	0.78222321227990
6.0859207876573	0.78222321478535
6.0772847759984	0.78222321715205
6.0686732388664	0.78222321937947
6.0600860723671	0.78222322146710
6.0515231731934	0.78222322341443
6.0429844386212	0.78222322522096
6.0344697665056	0.78222322688619
6.0259790552764	0.78222322840967
6.0175122039342	0.78222322979092
6.0090691120465	0.78222323102950
6.0006496797438	0.78222323212497
5.9922538077154	0.78222323307690
5.9838813972056	0.78222323388486
5.9755323500100	0.78222323454847
5.9672065684713	0.78222323506733
5.9589039554760	0.78222323544105
5.9506244144502	0.78222323566927
5.9423678493558	0.78222323575163
5.9341341646873	0.78222323568779
5.9259232654675	0.78222323547741
5.9177350572444	0.78222323512018
5.9095694460871	0.78222323461578
5.9014263385827	0.78222323396392
5.8933056418321	0.78222323316431
5.8852072634472	0.78222323221668
5.8771311115468	0.78222323112076
5.8690770947533	0.78222322987632
5.8610451221896	0.78222322848311
5.8530351034752	0.78222322694092
5.8450469487229	0.78222322524952
5.8370805685358	0.78222322340871
5.8291358740035	0.78222322141832
5.8212127766990	0.78222321927815
5.8133111886756	0.78222321698806
5.8054310224632	0.78222321454789
5.7975721910656	0.78222321195749
5.7897346079567	0.78222320921675
5.7819181870781	0.78222320632554
5.7741228428351	0.78222320328377
5.7663484900942	0.78222320009134
5.7585950441798	0.78222319674818
5.7508624208709	0.78222319325422
5.7431505363985	0.78222318960941
5.7354593074421	0.78222318581370
5.7277886511272	0.78222318186707
5.7201384850219	0.78222317776950
5.7125087271341	0.78222317352098
5.7048992959087	0.78222316912153
5.6973101102242	0.78222316457116
5.6897410893908	0.78222315986990
5.6821921531463	0.78222315501781
5.6746632216544	0.78222315001493
5.6671542155009	0.78222314486133
5.6596650556919	0.78222313955710
5.6521956636501	0.78222313410233
5.6447459612126	0.78222312849713
5.6373158706281	0.78222312274161
5.6299053145540	0.78222311683589
5.6225142160540	0.78222311078014
5.6151424985952	0.78222310457449
5.6077900860456	0.78222309821911
5.6004569026714	0.78222309171419
5.5931428731343	0.78222308505991
5.5858479224893	0.78222307825648
5.5785719761816	0.78222307130410
5.5713149600446	0.78222306420301
5.5640768002970	0.78222305695345
5.5568574235403	0.78222304955566
5.5496567567568	0.78222304200990
5.5424747273063	0.78222303431646
5.5353112629247	0.78222302647561
5.5281662917204	0.78222301848766
5.5210397421731	0.78222301035292
5.5139315431304	0.78222300207170
5.5068416238060	0.78222299364434
5.4997699137773	0.78222298507119
5.4927163429828	0.78222297635260
5.4856808417200	0.78222296748894
5.4786633406433	0.78222295848059
5.4716637707611	0.78222294932794
5.4646820634342	0.78222294003140
5.4577181503732	0.78222293059139
5.4507719636364	0.78222292100831
5.4438434356274	0.78222291128263
5.4369324990932	0.78222290141478
5.4300390871219	0.78222289140522
5.4231631331404	0.78222288125443
5.4163045709124	0.78222287096289
5.4094633345363	0.78222286053109
5.4026393584430	0.78222284995955
5.3958325773938	0.78222283924877
5.3890429264785	0.78222282839928
5.3822703411131	0.78222281741163
5.3755147570378	0.78222280628637
5.3687761103152	0.78222279502405
5.3620543373278	0.78222278362524
5.3553493747767	0.78222277209053
5.3486611596789	0.78222276042052
5.3419896293656	0.78222274861580
5.3353347214807	0.78222273667699
5.3286963739780	0.78222272460471
5.3220745251198	0.78222271239961
5.3154691134752	0.78222270006233
5.3088800779175	0.78222268759352
5.3023073576229	0.78222267499386
5.2957508920685	0.78222266226401
5.2892106210303	0.78222264940467
5.2826864845815	0.78222263641654
5.2761784230905	0.78222262330032
5.2696863772192	0.78222261005673
5.2632102879213	0.78222259668650
5.2567500964405	0.78222258319037
5.2503057443082	0.78222256956909
5.2438771733427	0.78222255582341
5.2374643256464	0.78222254195410
5.2310671436050	0.78222252796193
5.2246855698850	0.78222251384770
5.2183195474326	0.78222249961220
5.2119690194715	0.78222248525624
5.2056339295016	0.78222247078062
5.1993142212973	0.78222245618619
5.1930098389052	0.78222244147375
5.1867207266436	0.78222242664417
5.1804468290997	0.78222241169829
5.1741880911288	0.78222239663697
5.1679444578521	0.78222238146108
5.1617158746556	0.78222236617150
5.1555022871883	0.78222235076912
5.1493036413604	0.78222233525482
5.1431198833419	0.78222231962952
5.1369509595613	0.78222230389413
5.1307968167037	0.78222228804957
5.1246574017094	0.78222227209676
5.1185326617722	0.78222225603664
5.1124225443383	0.78222223987016
5.1063269971044	0.78222222359828
5.1002459680163	0.78222220722195
5.0941794052676	0.78222219074214
5.0881272572980	0.78222217415982
5.0820894727920	0.78222215747599
5.0760660006773	0.78222214069164
5.0700567901235	0.78222212380776
5.0640617905405	0.78222210682536
5.0580809515775	0.78222208974545
5.0521142231210	0.78222207256906
5.0461615552937	0.78222205529722
5.0402228984533	0.78222203793095
5.0342982031906	0.78222202047131
5.0283874203287	0.78222200291933
5.0224905009214	0.78222198527608
5.0166073962517	0.78222196754261
5.0107380578305	0.78222194972000
5.0048824373957	0.78222193180932
4.9990404869101	0.78222191381166
4.9932121585610	0.78222189572809
4.9873974047579	0.78222187755971
4.9815961781323	0.78222185930762
4.9758084315353	0.78222184097293
4.9700341180371	0.78222182255674
4.9642731909256	0.78222180406017
4.9585256037049	0.78222178548435
4.9527913100942	0.78222176683040
4.9470702640264	0.78222174809945
4.9413624196473	0.78222172929265
4.9356677313138	0.78222171041113
4.9299861535932	0.78222169145603
4.9243176412615	0.78222167242852
4.9186621493027	0.78222165332975
4.9130196329072	0.78222163416089
4.9073900474709	0.78222161492309
4.9017733485939	0.78222159561752
4.8961694920790	0.78222157624538
4.8905784339315	0.78222155680782
4.8850001303569	0.78222153730603
4.8794345377604	0.78222151774121
4.8738816127459	0.78222149811453
4.8683413121143	0.78222147842721
4.8628135928629	0.78222145868042
4.8572984121841	0.78222143887537
4.8517957274640	0.78222141901328
4.8463054962819	0.78222139909534
4.8408276764088	0.78222137912276
4.8353622258065	0.78222135909676
