#Parameters = {thARC=0.2; nARC=3; thsub=1; p=1; nSub=2.75}
#"Wavelength / um"	"T (428) [Real Part]"
#---------------------------------------
14.989622900000	0.77784541041335
14.937342202292	0.77782432708158
14.885424925521	0.77780286626593
14.833867293419	0.77778103282215
14.782665581854	0.77775883156240
14.731816117936	0.77773626725542
14.681315279138	0.77771334462658
14.631159492435	0.77769006835798
14.581345233463	0.77766644308857
14.531869025691	0.77764247341427
14.482727439614	0.77761816388804
14.433917091960	0.77759351902003
14.385434644914	0.77756854327767
14.337276805356	0.77754324108583
14.289440324118	0.77751761682689
14.241921995249	0.77749167484088
14.194718655303	0.77746541942564
14.147827182633	0.77743885483691
14.101244496707	0.77741198528847
14.054967557431	0.77738481495230
14.008993364486	0.77735734795869
13.963318956684	0.77732958839639
13.917941411328	0.77730154031275
13.872857843591	0.77727320771387
13.828065405904	0.77724459456475
13.783561287356	0.77721570478942
13.739342713107	0.77718654227113
13.695406943810	0.77715711085245
13.651751275046	0.77712741433549
13.608373036768	0.77709745648200
13.565269592760	0.77706724101357
13.522438340099	0.77703677161178
13.479876708633	0.77700605191836
13.437582160466	0.77697508553537
13.395552189455	0.77694387602536
13.353784320713	0.77691242691154
13.312276110124	0.77688074167795
13.271025143869	0.77684882376967
13.230029037952	0.77681667659293
13.189285437747	0.77678430351535
13.148792017544	0.77675170786610
13.108546480105	0.77671889293608
13.068546556234	0.77668586197808
13.028790004346	0.77665261820703
12.989274610052	0.77661916480012
12.949998185745	0.77658550489701
12.910958570198	0.77655164160006
12.872153628167	0.77651757797447
12.833581250000	0.77648331704848
12.795239351259	0.77644886181361
12.757125872340	0.77641421522480
12.719238778108	0.77637938020065
12.681576057530	0.77634435962359
12.644135723323	0.77630915634009
12.606915811606	0.77627377316090
12.569914381551	0.77623821286117
12.533129515050	0.77620247818075
12.496559316382	0.77616657182431
12.460201911887	0.77613049646161
12.424055449648	0.77609425472769
12.388118099174	0.77605784922307
12.352388051092	0.77602128251394
12.316863516845	0.77598455713244
12.281542728390	0.77594767557679
12.246423937908	0.77591064031157
12.211505417515	0.77587345376789
12.176785458976	0.77583611834364
12.142262373431	0.77579863640366
12.107934491115	0.77576101028003
12.073800161095	0.77572324227221
12.039857751004	0.77568533464730
12.006105646776	0.77564728964025
11.972542252396	0.77560910945410
11.939165989646	0.77557079626017
11.905975297855	0.77553235219831
11.872968633663	0.77549377937708
11.840144470774	0.77545507987404
11.807501299724	0.77541625573591
11.775037627651	0.77537730897883
11.742751978065	0.77533824158857
11.710642890625	0.77529905552077
11.678708920919	0.77525975270116
11.646948640249	0.77522033502576
11.615360635413	0.77518080436115
11.583943508501	0.77514116254467
11.552695876686	0.77510141138467
11.521616372022	0.77506155266070
11.490703641242	0.77502158812378
11.459956345566	0.77498151949660
11.429373160503	0.77494134847376
11.398952775665	0.77490107672202
11.368693894577	0.77486070588048
11.338595234493	0.77482023756085
11.308655526217	0.77477967334767
11.278873513920	0.77473901479855
11.249247954972	0.77469826344436
11.219777619760	0.77465742078952
11.190461291527	0.77461648831217
11.161297766195	0.77457546746447
11.132285852209	0.77453435967276
11.103424370370	0.77449316633782
11.074712153676	0.77445188883513
11.046148047163	0.77441052851506
11.017730907755	0.77436908670310
10.989459604106	0.77432756470012
10.961333016453	0.77428596378258
10.933350036470	0.77424428520278
10.905509567115	0.77420253018906
10.877810522496	0.77416069994605
10.850251827723	0.77411879565490
10.822832418773	0.77407681847350
10.795551242348	0.77403476953672
10.768407255747	0.77399264995664
10.741399426729	0.77395046082277
10.714526733381	0.77390820320227
10.687788163993	0.77386587814022
10.661182716927	0.77382348665980
10.634709400497	0.77378102976254
10.608367232838	0.77373850842855
10.582155241793	0.77369592361675
10.556072464789	0.77365327626506
10.530117948718	0.77361056729069
10.504290749825	0.77356779759032
10.478589933590	0.77352496804034
10.453014574616	0.77348207949706
10.427563756522	0.77343913279696
10.402236571825	0.77339612875691
10.377032121841	0.77335306817436
10.351949516575	0.77330995182761
10.326987874612	0.77326678047601
10.302146323024	0.77322355486016
10.277423997257	0.77318027570220
10.252820041040	0.77313694370593
10.228333606278	0.77309355955712
10.203963852961	0.77305012392371
10.179709949066	0.77300663745596
10.155571070461	0.77296310078678
10.131546400811	0.77291951453187
10.107635131490	0.77287587928993
10.083836461487	0.77283219564294
10.060149597315	0.77278846415634
10.036573752929	0.77274468537921
10.013108149633	0.77270085984454
9.9897520159947	0.77265698806944
9.9665045877660	0.77261307055530
9.9433651077944	0.77256910778805
9.9203328259431	0.77252510023837
9.8974069990096	0.77248104836186
9.8745868906456	0.77243695259930
9.8518717712783	0.77239281337682
9.8292609180328	0.77234863110613
9.8067536146549	0.77230440618473
9.7843491514360	0.77226013899607
9.7620468251384	0.77221582990984
9.7398459389214	0.77217147928208
9.7177458022690	0.77212708745545
9.6957457309185	0.77208265475941
9.6738450467893	0.77203818151042
9.6520430779137	0.77199366801212
9.6303391583681	0.77194911455560
9.6087326282051	0.77190452141950
9.5872228333866	0.77185988887028
9.5658091257179	0.77181521716239
9.5444908627826	0.77177050653848
9.5232674078780	0.77172575722956
9.5021381299525	0.77168096945525
9.4811024035421	0.77163614342391
9.4601596087094	0.77159127933287
9.4393091309824	0.77154637736862
9.4185503612944	0.77150143770698
9.3978826959248	0.77145646051330
9.3773055364404	0.77141144594267
9.3568182896380	0.77136639414004
9.3364203674868	0.77132130524048
9.3161111870727	0.77127617936933
9.2958901705426	0.77123101664235
9.2757567450495	0.77118581716599
9.2557103426984	0.77114058103747
9.2357504004929	0.77109530834502
9.2158763602828	0.77104999916805
9.1960876687117	0.77100465357732
9.1763837771656	0.77095927163510
9.1567641417227	0.77091385339540
9.1372282231027	0.77086839890406
9.1177754866180	0.77082290819899
9.0984054021244	0.77077738131033
9.0791174439733	0.77073181826058
9.0599110909640	0.77068621906481
9.0407858262967	0.77064058373083
9.0217411375263	0.77059491225933
9.0027765165165	0.77054920464405
8.9838914593947	0.77050346087195
8.9650854665072	0.77045768092340
8.9463580423754	0.77041186477228
8.9277086956522	0.77036601238619
8.9091369390788	0.77032012372661
8.8906422894425	0.77027419874901
8.8722242675348	0.77022823740308
8.8538823981099	0.77018223963279
8.8356162098438	0.77013620537665
8.8174252352941	0.77009013456778
8.7993090108600	0.77004402713410
8.7812670767428	0.76999788299848
8.7632989769073	0.76995170207887
8.7454042590432	0.76990548428847
8.7275824745269	0.76985922953584
8.7098331783847	0.76981293772510
8.6921559292549	0.76976660875604
8.6745502893519	0.76972024252424
8.6570158244297	0.76967383892127
8.6395521037464	0.76962739783479
8.6221587000288	0.76958091914867
8.6048351894374	0.76953440274318
8.5875811515325	0.76948784849509
8.5703961692396	0.76944125627783
8.5532798288160	0.76939462596157
8.5362317198178	0.76934795741343
8.5192514350668	0.76930125049754
8.5023385706183	0.76925450507520
8.4854927257288	0.76920772100504
8.4687135028249	0.76916089814307
8.4520005074711	0.76911403634287
8.4353533483399	0.76906713545570
8.4187716371806	0.76902019533061
8.4022549887892	0.76897321581455
8.3858030209790	0.76892619675252
8.3694153545505	0.76887913798769
8.3530916132627	0.76883203936148
8.3368314238042	0.76878490071371
8.3206344157646	0.76873772188271
8.3045002216066	0.76869050270541
8.2884284766381	0.76864324301747
8.2724188189845	0.76859594265342
8.2564708895621	0.76854860144671
8.2405843320506	0.76850121922984
8.2247587928669	0.76845379583451
8.2089939211391	0.76840633109165
8.1932893686800	0.76835882483159
8.1776447899618	0.76831127688413
8.1620598420909	0.76826368707865
8.1465341847826	0.76821605524419
8.1310674803363	0.76816838120958
8.1156593936113	0.76812066480353
8.1003095920022	0.76807290585471
8.0850177454153	0.76802510419185
8.0697835262450	0.76797725964385
8.0546066093498	0.76792937203987
8.0394866720300	0.76788144120937
8.0244233940043	0.76783346698228
8.0094164573871	0.76778544918903
7.9944655466667	0.76773738766067
7.9795703486825	0.76768928222891
7.9647305526036	0.76764113272628
7.9499458499072	0.76759293898613
7.9352159343568	0.76754470084277
7.9205405019815	0.76749641813152
7.9059192510549	0.76744809068881
7.8913518820742	0.76739971835223
7.8768380977404	0.76735130096064
7.8623776029373	0.76730283835422
7.8479701047120	0.76725433037456
7.8336153122550	0.76720577686472
7.8193129368805	0.76715717766929
7.8050626920073	0.76710853263452
7.7908642931393	0.76705984160829
7.7767174578470	0.76701110444028
7.7626219057483	0.76696232098196
7.7485773584906	0.76691349108670
7.7345835397317	0.76686461460981
7.7206401751223	0.76681569140861
7.7067469922879	0.76676672134250
7.6929037208109	0.76671770427300
7.6791100922131	0.76666864006383
7.6653658399386	0.76661952858096
7.6516706993364	0.76657036969264
7.6380244076433	0.76652116326952
7.6244267039674	0.76647190918464
7.6108773292714	0.76642260731350
7.5973760263558	0.76637325753412
7.5839225398432	0.76632385972712
7.5705166161616	0.76627441377568
7.5571580035291	0.76622491956570
7.5438464519376	0.76617537698577
7.5305817131374	0.76612578592721
7.5173635406219	0.76607614628420
7.5041916896120	0.76602645795371
7.4910659170415	0.76597672083563
7.4779859815415	0.76592693483276
7.4649516434263	0.76587709985088
7.4519626646781	0.76582721579877
7.4390188089330	0.76577728258826
7.4261198414664	0.76572730013424
7.4132655291790	0.76567726835475
7.4004556405826	0.76562718717095
7.3876899457861	0.76557705650719
7.3749682164822	0.76552687629104
7.3622902259332	0.76547664645331
7.3496557489581	0.76542636692809
7.3370645619187	0.76537603765275
7.3245164427071	0.76532565856803
7.3120111707317	0.76527522961800
7.2995485269053	0.76522475075012
7.2871282936315	0.76517422191526
7.2747502547925	0.76512364306770
7.2624141957364	0.76507301416520
7.2501199032648	0.76502233516899
7.2378671656205	0.76497160604377
7.2256557724753	0.76492082675778
7.2134855149182	0.76486999728277
7.2013561854432	0.76481911759405
7.1892675779376	0.76476818767050
7.1772194876706	0.76471720749456
7.1652117112811	0.76466617705227
7.1532440467669	0.76461509633330
7.1413162934731	0.76456396533090
7.1294282520809	0.76451278404198
7.1175797245964	0.76446155246708
7.1057705143399	0.76441027061038
7.0940004259347	0.76435893847974
7.0822692652965	0.76430755608665
7.0705768396226	0.76425612344632
7.0589229573817	0.76420464057759
7.0473074283028	0.76415310750302
7.0357300633654	0.76410152424883
7.0241906747891	0.76404989084494
7.0126890760234	0.76399820732497
7.0012250817375	0.76394647372621
6.9897985078107	0.76389469008965
6.9784091713222	0.76384285645999
6.9670568905415	0.76379097288560
6.9557414849188	0.76373903941855
6.9444627750753	0.76368705611458
6.9332205827937	0.76363502303314
6.9220147310090	0.76358294023732
6.9108450437990	0.76353080779391
6.8997113463751	0.76347862577335
6.8886134650735	0.76342639424974
6.8775512273457	0.76337411330084
6.8665244617499	0.76332178300805
6.8555329979419	0.76326940345637
6.8445766666667	0.76321697473447
6.8336552997493	0.76316449693460
6.8227687300865	0.76311197015262
6.8119167916383	0.76305939448798
6.8010993194192	0.76300677004368
6.7903161494904	0.76295409692632
6.7795671189507	0.76290137524601
6.7688520659291	0.76284860511641
6.7581708295762	0.76279578665468
6.7475232500563	0.76274291998151
6.7369091685393	0.76269000522102
6.7263284271932	0.76263704250084
6.7157808691756	0.76258403195203
6.7052663386267	0.76253097370905
6.6947846806610	0.76247786790981
6.6843357413601	0.76242471469558
6.6739193677649	0.76237151421098
6.6635354078684	0.76231826660402
6.6531837106081	0.76226497202598
6.6428641258586	0.76221163063147
6.6325765044248	0.76215824257836
6.6223206980340	0.76210480802778
6.6120965593295	0.76205132714409
6.6019039418630	0.76199780009484
6.5917427000879	0.76194422705076
6.5816126893524	0.76189060818574
6.5715137658922	0.76183694367678
6.5614457868243	0.76178323370399
6.5514086101399	0.76172947845053
6.5414020946978	0.76167567810264
6.5314261002179	0.76162183284953
6.5214804872743	0.76156794288341
6.5115651172893	0.76151400839946
6.5016798525266	0.76146002959576
6.4918245560849	0.76140600667332
6.4819990918919	0.76135193983596
6.4722033246978	0.76129782929039
6.4624371200690	0.76124367524608
6.4527003443823	0.76118947791530
6.4429928648184	0.76113523751303
6.4333145493562	0.76108095425698
6.4236652667667	0.76102662836751
6.4140448866068	0.76097226006763
6.4044532792138	0.76091784958296
6.3948903156997	0.76086339714167
6.3853558679446	0.76080890297448
6.3758498085921	0.76075436731462
6.3663720110427	0.76069979039777
6.3569223494487	0.76064517246204
6.3475006987084	0.76059051374795
6.3381069344609	0.76053581449836
6.3287409330800	0.76048107495847
6.3194025716695	0.76042629537575
6.3100917280572	0.76037147599994
6.3008082807902	0.76031661708296
6.2915521091291	0.76026171887895
6.2823230930427	0.76020678164414
6.2731211132036	0.76015180563688
6.2639460509820	0.76009679111760
6.2547977884415	0.76004173834873
6.2456762083333	0.75998664759469
6.2365811940919	0.75993151912184
6.2275126298297	0.75987635319846
6.2184704003319	0.75982115009469
6.2094543910522	0.75976591008252
6.2004644881075	0.75971063343569
6.1915005782734	0.75965532042972
6.1825625489792	0.75959997134185
6.1736502883031	0.75954458645096
6.1647636849681	0.75948916603759
6.1559026283368	0.75943371038386
6.1470670084068	0.75937821977343
6.1382567158067	0.75932269449150
6.1294716417910	0.75926713482472
6.1207116782360	0.75921154106119
6.1119767176351	0.75915591349036
6.1032666530945	0.75910025240309
6.0945813783289	0.75904455809151
6.0859207876573	0.75898883084902
6.0772847759984	0.75893307097027
6.0686732388664	0.75887727875108
6.0600860723671	0.75882145448843
6.0515231731934	0.75876559848041
6.0429844386212	0.75870971102615
6.0344697665056	0.75865379242585
6.0259790552764	0.75859784298066
6.0175122039342	0.75854186299268
6.0090691120465	0.75848585276493
6.0006496797438	0.75842981260129
5.9922538077154	0.75837374280646
5.9838813972056	0.75831764368592
5.9755323500100	0.75826151554589
5.9672065684713	0.75820535869331
5.9589039554760	0.75814917343577
5.9506244144502	0.75809296008147
5.9423678493558	0.75803671893923
5.9341341646873	0.75798045031838
5.9259232654675	0.75792415452875
5.9177350572444	0.75786783188067
5.9095694460871	0.75781148268485
5.9014263385827	0.75775510725241
5.8933056418321	0.75769870589481
5.8852072634472	0.75764227892381
5.8771311115468	0.75758582665144
5.8690770947533	0.75752934938997
5.8610451221896	0.75747284745183
5.8530351034752	0.75741632114963
5.8450469487229	0.75735977079607
5.8370805685358	0.75730319670394
5.8291358740035	0.75724659918607
5.8212127766990	0.75718997855526
5.8133111886756	0.75713333512431
5.8054310224632	0.75707666920590
5.7975721910656	0.75701998111263
5.7897346079567	0.75696327115695
5.7819181870781	0.75690653965109
5.7741228428351	0.75684978690708
5.7663484900942	0.75679301323670
5.7585950441798	0.75673621895141
5.7508624208709	0.75667940436235
5.7431505363985	0.75662256978029
5.7354593074421	0.75656571551561
5.7277886511272	0.75650884187823
5.7201384850219	0.75645194917761
5.7125087271341	0.75639503772270
5.7048992959087	0.75633810782193
5.6973101102242	0.75628115978312
5.6897410893908	0.75622419391350
5.6821921531463	0.75616721051967
5.6746632216544	0.75611020990755
5.6671542155009	0.75605319238233
5.6596650556919	0.75599615824850
5.6521956636501	0.75593910780974
5.6447459612126	0.75588204136897
5.6373158706281	0.75582495922824
5.6299053145540	0.75576786168876
5.6225142160540	0.75571074905083
5.6151424985952	0.75565362161384
5.6077900860456	0.75559647967620
5.6004569026714	0.75553932353536
5.5931428731343	0.75548215348776
5.5858479224893	0.75542496982877
5.5785719761816	0.75536777285271
5.5713149600446	0.75531056285280
5.5640768002970	0.75525334012114
5.5568574235403	0.75519610494865
5.5496567567568	0.75513885762510
5.5424747273063	0.75508159843904
5.5353112629247	0.75502432767779
5.5281662917204	0.75496704562741
5.5210397421731	0.75490975257267
5.5139315431304	0.75485244879705
5.5068416238060	0.75479513458268
5.4997699137773	0.75473781021034
5.4927163429828	0.75468047595942
5.4856808417200	0.75462313210793
5.4786633406433	0.75456577893244
5.4716637707611	0.75450841670806
5.4646820634342	0.75445104570844
5.4577181503732	0.75439366620575
5.4507719636364	0.75433627847063
5.4438434356274	0.75427888277219
5.4369324990932	0.75422147937799
5.4300390871219	0.75416406855403
5.4231631331404	0.75410665056469
5.4163045709124	0.75404922567277
5.4094633345363	0.75399179413940
5.4026393584430	0.75393435622411
5.3958325773938	0.75387691218474
5.3890429264785	0.75381946227744
5.3822703411131	0.75376200675669
5.3755147570378	0.75370454587524
5.3687761103152	0.75364707988410
5.3620543373278	0.75358960903256
5.3553493747767	0.75353213356813
5.3486611596789	0.75347465373657
5.3419896293656	0.75341716978183
5.3353347214807	0.75335968194607
5.3286963739780	0.75330219046965
5.3220745251198	0.75324469559110
5.3154691134752	0.75318719754709
5.3088800779175	0.75312969657247
5.3023073576229	0.75307219290024
5.2957508920685	0.75301468676150
5.2892106210303	0.75295717838550
5.2826864845815	0.75289966799958
5.2761784230905	0.75284215582921
5.2696863772192	0.75278464209794
5.2632102879213	0.75272712702741
5.2567500964405	0.75266961083735
5.2503057443082	0.75261209374555
5.2438771733427	0.75255457596788
5.2374643256464	0.75249705771827
5.2310671436050	0.75243953920870
5.2246855698850	0.75238202064922
5.2183195474326	0.75232450224790
5.2119690194715	0.75226698421088
5.2056339295016	0.75220946674233
5.1993142212973	0.75215195004445
5.1930098389052	0.75209443431750
5.1867207266436	0.75203691975975
5.1804468290997	0.75197940656752
5.1741880911288	0.75192189493514
5.1679444578521	0.75186438505499
5.1617158746556	0.75180687711749
5.1555022871883	0.75174937131105
5.1493036413604	0.75169186782217
5.1431198833419	0.75163436683534
5.1369509595613	0.75157686853312
5.1307968167037	0.75151937309607
5.1246574017094	0.75146188070283
5.1185326617722	0.75140439153008
5.1124225443383	0.75134690575253
5.1063269971044	0.75128942354296
5.1002459680163	0.75123194507222
5.0941794052676	0.75117447050919
5.0881272572980	0.75111700002087
5.0820894727920	0.75105953377229
5.0760660006773	0.75100207192661
5.0700567901235	0.75094461464504
5.0640617905405	0.75088716208691
5.0580809515775	0.75082971440967
5.0521142231210	0.75077227176887
5.0461615552937	0.75071483431819
5.0402228984533	0.75065740220944
5.0342982031906	0.75059997559260
5.0283874203287	0.75054255461578
5.0224905009214	0.75048513942527
5.0166073962517	0.75042773016555
5.0107380578305	0.75037032697926
5.0048824373957	0.75031293000728
4.9990404869101	0.75025553938869
4.9932121585610	0.75019815526081
4.9873974047579	0.75014077775918
4.9815961781323	0.75008340701763
4.9758084315353	0.75002604316824
4.9700341180371	0.74996868634139
4.9642731909256	0.74991133666576
4.9585256037049	0.74985399426836
4.9527913100942	0.74979665927453
4.9470702640264	0.74973933180794
4.9413624196473	0.74968201199067
4.9356677313138	0.74962469994316
4.9299861535932	0.74956739578426
4.9243176412615	0.74951009963127
4.9186621493027	0.74945281159989
4.9130196329072	0.74939553180432
4.9073900474709	0.74933826035722
4.9017733485939	0.74928099736976
4.8961694920790	0.74922374295164
4.8905784339315	0.74916649721108
4.8850001303569	0.74910926025490
4.8794345377604	0.74905203218847
4.8738816127459	0.74899481311579
4.8683413121143	0.74893760313948
4.8628135928629	0.74888040236083
4.8572984121841	0.74882321087978
4.8517957274640	0.74876602879499
4.8463054962819	0.74870885620384
4.8408276764088	0.74865169320244
4.8353622258065	0.74859453988569
