#Parameters = {thARC=1; nARC=1; thsub=1; p=1; nSub=3}
#"Wavelength / um"	"T (438) [Real Part]"
#---------------------------------------
14.989622900000	0.75000009410299
14.937342202292	0.75002820794179
14.885424925521	0.75005550844437
14.833867293419	0.75008200737312
14.782665581854	0.75010771641340
14.731816117936	0.75013264717309
14.681315279138	0.75015681118225
14.631159492435	0.75018021989266
14.581345233463	0.75020288467747
14.531869025691	0.75022481683082
14.482727439614	0.75024602756753
14.433917091960	0.75026652802269
14.385434644914	0.75028632925140
14.337276805356	0.75030544222843
14.289440324118	0.75032387784790
14.241921995249	0.75034164692304
14.194718655303	0.75035876018588
14.147827182633	0.75037522828701
14.101244496707	0.75039106179532
14.054967557431	0.75040627119776
14.008993364486	0.75042086689915
13.963318956684	0.75043485922192
13.917941411328	0.75044825840596
13.872857843591	0.75046107460840
13.828065405904	0.75047331790347
13.783561287356	0.75048499828229
13.739342713107	0.75049612565276
13.695406943810	0.75050670983944
13.651751275046	0.75051676058336
13.608373036768	0.75052628754196
13.565269592760	0.75053530028896
13.522438340099	0.75054380831428
13.479876708633	0.75055182102398
13.437582160466	0.75055934774013
13.395552189455	0.75056639770082
13.353784320713	0.75057298006008
13.312276110124	0.75057910388785
13.271025143869	0.75058477816994
13.230029037952	0.75059001180803
13.189285437747	0.75059481361969
13.148792017544	0.75059919233833
13.108546480105	0.75060315661325
13.068546556234	0.75060671500970
13.028790004346	0.75060987600883
12.989274610052	0.75061264800781
12.949998185745	0.75061503931988
12.910958570198	0.75061705817437
12.872153628167	0.75061871271682
12.833581250000	0.75062001100906
12.795239351259	0.75062096102927
12.757125872340	0.75062157067212
12.719238778108	0.75062184774890
12.681576057530	0.75062179998756
12.644135723323	0.75062143503294
12.606915811606	0.75062076044685
12.569914381551	0.75061978370822
12.533129515050	0.75061851221329
12.496559316382	0.75061695327575
12.460201911887	0.75061511412690
12.424055449648	0.75061300191589
12.388118099174	0.75061062370982
12.352388051092	0.75060798649404
12.316863516845	0.75060509717227
12.281542728390	0.75060196256686
12.246423937908	0.75059858941899
12.211505417515	0.75059498438893
12.176785458976	0.75059115405624
12.142262373431	0.75058710492003
12.107934491115	0.75058284339921
12.073800161095	0.75057837583274
12.039857751004	0.75057370847992
12.006105646776	0.75056884752062
11.972542252396	0.75056379905561
11.939165989646	0.75055856910678
11.905975297855	0.75055316361751
11.872968633663	0.75054758845290
11.840144470774	0.75054184940010
11.807501299724	0.75053595216865
11.775037627651	0.75052990239073
11.742751978065	0.75052370562155
11.710642890625	0.75051736733964
11.678708920919	0.75051089294719
11.646948640249	0.75050428777040
11.615360635413	0.75049755705982
11.583943508501	0.75049070599070
11.552695876686	0.75048373966335
11.521616372022	0.75047666310348
11.490703641242	0.75046948126262
11.459956345566	0.75046219901842
11.429373160503	0.75045482117510
11.398952775665	0.75044735246378
11.368693894577	0.75043979754287
11.338595234493	0.75043216099849
11.308655526217	0.75042444734485
11.278873513920	0.75041666102464
11.249247954972	0.75040880640944
11.219777619760	0.75040088780015
11.190461291527	0.75039290942737
11.161297766195	0.75038487545184
11.132285852209	0.75037678996485
11.103424370370	0.75036865698865
11.074712153676	0.75036048047692
11.046148047163	0.75035226431518
11.017730907755	0.75034401232119
10.989459604106	0.75033572824545
10.961333016453	0.75032741577160
10.933350036470	0.75031907851691
10.905509567115	0.75031072003265
10.877810522496	0.75030234380463
10.850251827723	0.75029395325360
10.822832418773	0.75028555173573
10.795551242348	0.75027714254307
10.768407255747	0.75026872890399
10.741399426729	0.75026031398368
10.714526733381	0.75025190088460
10.687788163993	0.75024349264697
10.661182716927	0.75023509224919
10.634709400497	0.75022670260841
10.608367232838	0.75021832658090
10.582155241793	0.75020996696262
10.556072464789	0.75020162648965
10.530117948718	0.75019330783870
10.504290749825	0.75018501362758
10.478589933590	0.75017674641571
10.453014574616	0.75016850870458
10.427563756522	0.75016030293826
10.402236571825	0.75015213150390
10.377032121841	0.75014399673221
10.351949516575	0.75013590089797
10.326987874612	0.75012784622050
10.302146323024	0.75011983486421
10.277423997257	0.75011186893905
10.252820041040	0.75010395050103
10.228333606278	0.75009608155273
10.203963852961	0.75008826404380
10.179709949066	0.75008049987144
10.155571070461	0.75007279088095
10.131546400811	0.75006513886619
10.107635131490	0.75005754557015
10.083836461487	0.75005001268536
10.060149597315	0.75004254185449
10.036573752929	0.75003513467082
10.013108149633	0.75002779267874
9.9897520159947	0.75002051737427
9.9665045877660	0.75001331020559
9.9433651077944	0.75000617257350
9.9203328259431	0.74999910583199
9.8974069990096	0.74999211128868
9.8745868906456	0.74998519020542
9.8518717712783	0.74997834379871
9.8292609180328	0.74997157324026
9.8067536146549	0.74996487965750
9.7843491514360	0.74995826413407
9.7620468251384	0.74995172771034
9.7398459389214	0.74994527138392
9.7177458022690	0.74993889611016
9.6957457309185	0.74993260280268
9.6738450467893	0.74992639233384
9.6520430779137	0.74992026553529
9.6303391583681	0.74991422319844
9.6087326282051	0.74990826607499
9.5872228333866	0.74990239487744
9.5658091257179	0.74989661027955
9.5444908627826	0.74989091291692
9.5232674078780	0.74988530338740
9.5021381299525	0.74987978225167
9.4811024035421	0.74987435003372
9.4601596087094	0.74986900722130
9.4393091309824	0.74986375426651
9.4185503612944	0.74985859158620
9.3978826959248	0.74985351956255
9.3773055364404	0.74984853854352
9.3568182896380	0.74984364884333
9.3364203674868	0.74983885074301
9.3161111870727	0.74983414449082
9.2958901705426	0.74982953030282
9.2757567450495	0.74982500836327
9.2557103426984	0.74982057882520
9.2357504004929	0.74981624181082
9.2158763602828	0.74981199741207
9.1960876687117	0.74980784569106
9.1763837771656	0.74980378668057
9.1567641417227	0.74979982038450
9.1372282231027	0.74979594677841
9.1177754866180	0.74979216580990
9.0984054021244	0.74978847739918
9.0791174439733	0.74978488143947
9.0599110909640	0.74978137779753
9.0407858262967	0.74977796631404
9.0217411375263	0.74977464680418
9.0027765165165	0.74977141905801
8.9838914593947	0.74976828284092
8.9650854665072	0.74976523789418
8.9463580423754	0.74976228393530
8.9277086956522	0.74975942065855
8.9091369390788	0.74975664773538
8.8906422894425	0.74975396481486
8.8722242675348	0.74975137152417
8.8538823981099	0.74974886746902
8.8356162098438	0.74974645223408
8.8174252352941	0.74974412538346
8.7993090108600	0.74974188646108
8.7812670767428	0.74973973499121
8.7632989769073	0.74973767047880
8.7454042590432	0.74973569240998
8.7275824745269	0.74973380025244
8.7098331783847	0.74973199345590
8.6921559292549	0.74973027145251
8.6745502893519	0.74972863365726
8.6570158244297	0.74972707946843
8.6395521037464	0.74972560826798
8.6221587000288	0.74972421942196
8.6048351894374	0.74972291228095
8.5875811515325	0.74972168618042
8.5703961692396	0.74972054044119
8.5532798288160	0.74971947436979
8.5362317198178	0.74971848725885
8.5192514350668	0.74971757838756
8.5023385706183	0.74971674702198
8.4854927257288	0.74971599241550
8.4687135028249	0.74971531380918
8.4520005074711	0.74971471043216
8.4353533483399	0.74971418150202
8.4187716371806	0.74971372622519
8.4022549887892	0.74971334379728
8.3858030209790	0.74971303340352
8.3694153545505	0.74971279421903
8.3530916132627	0.74971262540930
8.3368314238042	0.74971252613046
8.3206344157646	0.74971249552968
8.3045002216066	0.74971253274554
8.2884284766381	0.74971263690835
8.2724188189845	0.74971280714053
8.2564708895621	0.74971304255693
8.2405843320506	0.74971334226520
8.2247587928669	0.74971370536610
8.2089939211391	0.74971413095388
8.1932893686800	0.74971461811659
8.1776447899618	0.74971516593639
8.1620598420909	0.74971577348992
8.1465341847826	0.74971643984859
8.1310674803363	0.74971716407893
8.1156593936113	0.74971794524289
8.1003095920022	0.74971878239815
8.0850177454153	0.74971967459846
8.0697835262450	0.74972062089390
8.0546066093498	0.74972162033124
8.0394866720300	0.74972267195419
8.0244233940043	0.74972377480375
8.0094164573871	0.74972492791845
7.9944655466667	0.74972613033469
7.9795703486825	0.74972738108700
7.9647305526036	0.74972867920832
7.9499458499072	0.74973002373031
7.9352159343568	0.74973141368360
7.9205405019815	0.74973284809806
7.9059192510549	0.74973432600312
7.8913518820742	0.74973584642798
7.8768380977404	0.74973740840190
7.8623776029373	0.74973901095445
7.8479701047120	0.74974065311580
7.8336153122550	0.74974233391691
7.8193129368805	0.74974405238985
7.8050626920073	0.74974580756801
7.7908642931393	0.74974759848634
7.7767174578470	0.74974942418161
7.7626219057483	0.74975128369262
7.7485773584906	0.74975317606047
7.7345835397317	0.74975510032876
7.7206401751223	0.74975705554381
7.7067469922879	0.74975904075493
7.6929037208109	0.74976105501456
7.6791100922131	0.74976309737859
7.6653658399386	0.74976516690647
7.6516706993364	0.74976726266148
7.6380244076433	0.74976938371092
7.6244267039674	0.74977152912632
7.6108773292714	0.74977369798361
7.5973760263558	0.74977588936336
7.5839225398432	0.74977810235093
7.5705166161616	0.74978033603668
7.5571580035291	0.74978258951615
7.5438464519376	0.74978486189025
7.5305817131374	0.74978715226543
7.5173635406219	0.74978945975384
7.5041916896120	0.74979178347354
7.4910659170415	0.74979412254861
7.4779859815415	0.74979647610939
7.4649516434263	0.74979884329257
7.4519626646781	0.74980122324139
7.4390188089330	0.74980361510578
7.4261198414664	0.74980601804251
7.4132655291790	0.74980843121536
7.4004556405826	0.74981085379520
7.3876899457861	0.74981328496023
7.3749682164822	0.74981572389603
7.3622902259332	0.74981816979574
7.3496557489581	0.74982062186017
7.3370645619187	0.74982307929795
7.3245164427071	0.74982554132563
7.3120111707317	0.74982800716782
7.2995485269053	0.74983047605730
7.2871282936315	0.74983294723513
7.2747502547925	0.74983541995078
7.2624141957364	0.74983789346220
7.2501199032648	0.74984036703597
7.2378671656205	0.74984283994738
7.2256557724753	0.74984531148053
7.2134855149182	0.74984778092842
7.2013561854432	0.74985024759305
7.1892675779376	0.74985271078551
7.1772194876706	0.74985516982607
7.1652117112811	0.74985762404423
7.1532440467669	0.74986007277887
7.1413162934731	0.74986251537824
7.1294282520809	0.74986495120010
7.1175797245964	0.74986737961177
7.1057705143399	0.74986979999018
7.0940004259347	0.74987221172195
7.0822692652965	0.74987461420347
7.0705768396226	0.74987700684092
7.0589229573817	0.74987938905035
7.0473074283028	0.74988176025774
7.0357300633654	0.74988411989902
7.0241906747891	0.74988646742015
7.0126890760234	0.74988880227714
7.0012250817375	0.74989112393609
6.9897985078107	0.74989343187326
6.9784091713222	0.74989572557507
6.9670568905415	0.74989800453815
6.9557414849188	0.74990026826936
6.9444627750753	0.74990251628582
6.9332205827937	0.74990474811496
6.9220147310090	0.74990696329449
6.9108450437990	0.74990916137246
6.8997113463751	0.74991134190727
6.8886134650735	0.74991350446765
6.8775512273457	0.74991564863274
6.8665244617499	0.74991777399202
6.8555329979419	0.74991988014537
6.8445766666667	0.74992196670304
6.8336552997493	0.74992403328569
6.8227687300865	0.74992607952433
6.8119167916383	0.74992810506037
6.8010993194192	0.74993010954558
6.7903161494904	0.74993209264211
6.7795671189507	0.74993405402244
6.7688520659291	0.74993599336939
6.7581708295762	0.74993791037611
6.7475232500563	0.74993980474603
6.7369091685393	0.74994167619286
6.7263284271932	0.74994352444059
6.7157808691756	0.74994534922341
6.7052663386267	0.74994715028571
6.6947846806610	0.74994892738207
6.6843357413601	0.74995068027719
6.6739193677649	0.74995240874587
6.6635354078684	0.74995411257297
6.6531837106081	0.74995579155338
6.6428641258586	0.74995744549199
6.6325765044248	0.74995907420359
6.6223206980340	0.74996067751290
6.6120965593295	0.74996225525447
6.6019039418630	0.74996380727263
6.5917427000879	0.74996533342149
6.5816126893524	0.74996683356483
6.5715137658922	0.74996830757605
6.5614457868243	0.74996975533815
6.5514086101399	0.74997117674364
6.5414020946978	0.74997257169450
6.5314261002179	0.74997394010208
6.5214804872743	0.74997528188707
6.5115651172893	0.74997659697942
6.5016798525266	0.74997788531828
6.4918245560849	0.74997914685193
6.4819990918919	0.74998038153768
6.4722033246978	0.74998158934183
6.4624371200690	0.74998277023960
6.4527003443823	0.74998392421500
6.4429928648184	0.74998505126082
6.4333145493562	0.74998615137851
6.4236652667667	0.74998722457810
6.4140448866068	0.74998827087814
6.4044532792138	0.74998929030560
6.3948903156997	0.74999028289575
6.3853558679446	0.74999124869216
6.3758498085921	0.74999218774652
6.3663720110427	0.74999310011862
6.3569223494487	0.74999398587620
6.3475006987084	0.74999484509490
6.3381069344609	0.74999567785815
6.3287409330800	0.74999648425708
6.3194025716695	0.74999726439044
6.3100917280572	0.74999801836444
6.3008082807902	0.74999874629273
6.2915521091291	0.74999944829627
6.2823230930427	0.75000012450319
6.2731211132036	0.75000077504877
6.2639460509820	0.75000140007527
6.2547977884415	0.75000199973183
6.2456762083333	0.75000257417441
6.2365811940919	0.75000312356566
6.2275126298297	0.75000364807478
6.2184704003319	0.75000414787748
6.2094543910522	0.75000462315581
6.2004644881075	0.75000507409810
6.1915005782734	0.75000550089879
6.1825625489792	0.75000590375840
6.1736502883031	0.75000628288335
6.1647636849681	0.75000663848587
6.1559026283368	0.75000697078389
6.1470670084068	0.75000728000095
6.1382567158067	0.75000756636604
6.1294716417910	0.75000783011350
6.1207116782360	0.75000807148295
6.1119767176351	0.75000829071909
6.1032666530945	0.75000848807167
6.0945813783289	0.75000866379532
6.0859207876573	0.75000881814943
6.0772847759984	0.75000895139807
6.0686732388664	0.75000906380985
6.0600860723671	0.75000915565781
6.0515231731934	0.75000922721926
6.0429844386212	0.75000927877573
6.0344697665056	0.75000931061280
6.0259790552764	0.75000932302002
6.0175122039342	0.75000931629072
6.0090691120465	0.75000929072198
6.0006496797438	0.75000924661446
5.9922538077154	0.75000918427226
5.9838813972056	0.75000910400285
5.9755323500100	0.75000900611692
5.9672065684713	0.75000889092827
5.9589039554760	0.75000875875366
5.9506244144502	0.75000860991276
5.9423678493558	0.75000844472793
5.9341341646873	0.75000826352419
5.9259232654675	0.75000806662904
5.9177350572444	0.75000785437238
5.9095694460871	0.75000762708635
5.9014263385827	0.75000738510526
5.8933056418321	0.75000712876541
5.8852072634472	0.75000685840502
5.8771311115468	0.75000657436409
5.8690770947533	0.75000627698428
5.8610451221896	0.75000596660878
5.8530351034752	0.75000564358224
5.8450469487229	0.75000530825058
5.8370805685358	0.75000496096092
5.8291358740035	0.75000460206146
5.8212127766990	0.75000423190135
5.8133111886756	0.75000385083056
5.8054310224632	0.75000345919980
5.7975721910656	0.75000305736038
5.7897346079567	0.75000264566409
5.7819181870781	0.75000222446310
5.7741228428351	0.75000179410984
5.7663484900942	0.75000135495688
5.7585950441798	0.75000090735683
5.7508624208709	0.75000045166220
5.7431505363985	0.74999998822534
5.7354593074421	0.74999951739826
5.7277886511272	0.74999903953259
5.7201384850219	0.74999855497941
5.7125087271341	0.74999806408917
5.7048992959087	0.74999756721158
5.6973101102242	0.74999706469551
5.6897410893908	0.74999655688886
5.6821921531463	0.74999604413846
5.6746632216544	0.74999552678998
5.6671542155009	0.74999500518783
5.6596650556919	0.74999447967501
5.6521956636501	0.74999395059308
5.6447459612126	0.74999341828198
5.6373158706281	0.74999288307998
5.6299053145540	0.74999234532358
5.6225142160540	0.74999180534738
5.6151424985952	0.74999126348402
5.6077900860456	0.74999072006403
5.6004569026714	0.74999017541579
5.5931428731343	0.74998962986542
5.5858479224893	0.74998908373664
5.5785719761816	0.74998853735076
5.5713149600446	0.74998799102652
5.5640768002970	0.74998744508000
5.5568574235403	0.74998689982459
5.5496567567568	0.74998635557085
5.5424747273063	0.74998581262642
5.5353112629247	0.74998527129597
5.5281662917204	0.74998473188108
5.5210397421731	0.74998419468019
5.5139315431304	0.74998365998849
5.5068416238060	0.74998312809782
5.4997699137773	0.74998259929667
5.4927163429828	0.74998207386999
5.4856808417200	0.74998155209922
5.4786633406433	0.74998103426213
5.4716637707611	0.74998052063280
5.4646820634342	0.74998001148151
5.4577181503732	0.74997950707469
5.4507719636364	0.74997900767484
5.4438434356274	0.74997851354047
5.4369324990932	0.74997802492602
5.4300390871219	0.74997754208178
5.4231631331404	0.74997706525386
5.4163045709124	0.74997659468410
5.4094633345363	0.74997613061002
5.4026393584430	0.74997567326474
5.3958325773938	0.74997522287695
5.3890429264785	0.74997477967083
5.3822703411131	0.74997434386598
5.3755147570378	0.74997391567740
5.3687761103152	0.74997349531541
5.3620543373278	0.74997308298561
5.3553493747767	0.74997267888883
5.3486611596789	0.74997228322104
5.3419896293656	0.74997189617338
5.3353347214807	0.74997151793204
5.3286963739780	0.74997114867826
5.3220745251198	0.74997078858826
5.3154691134752	0.74997043783322
5.3088800779175	0.74997009657921
5.3023073576229	0.74996976498718
5.2957508920685	0.74996944321291
5.2892106210303	0.74996913140699
5.2826864845815	0.74996882971474
5.2761784230905	0.74996853827623
5.2696863772192	0.74996825722623
5.2632102879213	0.74996798669415
5.2567500964405	0.74996772680408
5.2503057443082	0.74996747767469
5.2438771733427	0.74996723941925
5.2374643256464	0.74996701214560
5.2310671436050	0.74996679595611
5.2246855698850	0.74996659094769
5.2183195474326	0.74996639721174
5.2119690194715	0.74996621483416
5.2056339295016	0.74996604389530
5.1993142212973	0.74996588446999
5.1930098389052	0.74996573662750
5.1867207266436	0.74996560043153
5.1804468290997	0.74996547594023
5.1741880911288	0.74996536320613
5.1679444578521	0.74996526227621
5.1617158746556	0.74996517319185
5.1555022871883	0.74996509598882
5.1493036413604	0.74996503069732
5.1431198833419	0.74996497734196
5.1369509595613	0.74996493594172
5.1307968167037	0.74996490651005
5.1246574017094	0.74996488905477
5.1185326617722	0.74996488357816
5.1124225443383	0.74996489007693
5.1063269971044	0.74996490854221
5.1002459680163	0.74996493895962
5.0941794052676	0.74996498130924
5.0881272572980	0.74996503556562
5.0820894727920	0.74996510169784
5.0760660006773	0.74996517966948
5.0700567901235	0.74996526943867
5.0640617905405	0.74996537095810
5.0580809515775	0.74996548417505
5.0521142231210	0.74996560903139
5.0461615552937	0.74996574546366
5.0402228984533	0.74996589340303
5.0342982031906	0.74996605277538
5.0283874203287	0.74996622350130
5.0224905009214	0.74996640549616
5.0166073962517	0.74996659867008
5.0107380578305	0.74996680292804
5.0048824373957	0.74996701816985
4.9990404869101	0.74996724429025
4.9932121585610	0.74996748117889
4.9873974047579	0.74996772872040
4.9815961781323	0.74996798679446
4.9758084315353	0.74996825527578
4.9700341180371	0.74996853403420
4.9642731909256	0.74996882293471
4.9585256037049	0.74996912183751
4.9527913100942	0.74996943059805
4.9470702640264	0.74996974906709
4.9413624196473	0.74997007709075
4.9356677313138	0.74997041451056
4.9299861535932	0.74997076116351
4.9243176412615	0.74997111688213
4.9186621493027	0.74997148149451
4.9130196329072	0.74997185482441
4.9073900474709	0.74997223669125
4.9017733485939	0.74997262691025
4.8961694920790	0.74997302529245
4.8905784339315	0.74997343164475
4.8850001303569	0.74997384577005
4.8794345377604	0.74997426746724
4.8738816127459	0.74997469653131
4.8683413121143	0.74997513275341
4.8628135928629	0.74997557592092
4.8572984121841	0.74997602581753
4.8517957274640	0.74997648222328
4.8463054962819	0.74997694491469
4.8408276764088	0.74997741366479
4.8353622258065	0.74997788824319
