#Parameters = {thARC=0.4; nARC=2.75; thsub=1; p=1; nSub=3}
#"Wavelength / um"	"T (477) [Real Part]"
#---------------------------------------
14.989622900000	0.76175645372736
14.937342202292	0.76186896575587
14.885424925521	0.76198067952828
14.833867293419	0.76209160850810
14.782665581854	0.76220176607183
14.731816117936	0.76231116550826
14.681315279138	0.76241982001796
14.631159492435	0.76252774271259
14.581345233463	0.76263494661437
14.531869025691	0.76274144465551
14.482727439614	0.76284724967769
14.433917091960	0.76295237443146
14.385434644914	0.76305683157581
14.337276805356	0.76316063367762
14.289440324118	0.76326379321121
14.241921995249	0.76336632255787
14.194718655303	0.76346823400539
14.147827182633	0.76356953974766
14.101244496707	0.76367025188425
14.054967557431	0.76377038242000
14.008993364486	0.76386994326463
13.963318956684	0.76396894623239
13.917941411328	0.76406740304171
13.872857843591	0.76416532531483
13.828065405904	0.76426272457752
13.783561287356	0.76435961225873
13.739342713107	0.76445599969036
13.695406943810	0.76455189810689
13.651751275046	0.76464731864521
13.608373036768	0.76474227234432
13.565269592760	0.76483677014510
13.522438340099	0.76493082289013
13.479876708633	0.76502444132342
13.437582160466	0.76511763609027
13.395552189455	0.76521041773707
13.353784320713	0.76530279671117
13.312276110124	0.76539478336066
13.271025143869	0.76548638793432
13.230029037952	0.76557762058143
13.189285437747	0.76566849135172
13.148792017544	0.76575901019521
13.108546480105	0.76584918696217
13.068546556234	0.76593903140305
13.028790004346	0.76602855316841
12.989274610052	0.76611776180887
12.949998185745	0.76620666677511
12.910958570198	0.76629527741779
12.872153628167	0.76638360298764
12.833581250000	0.76647165263535
12.795239351259	0.76655943541169
12.757125872340	0.76664696026746
12.719238778108	0.76673423605359
12.681576057530	0.76682127152115
12.644135723323	0.76690807532146
12.606915811606	0.76699465600610
12.569914381551	0.76708102202707
12.533129515050	0.76716718173682
12.496559316382	0.76725314338842
12.460201911887	0.76733891513564
12.424055449648	0.76742450503308
12.388118099174	0.76750992103635
12.352388051092	0.76759517100215
12.316863516845	0.76768026268852
12.281542728390	0.76776520375493
12.246423937908	0.76785000176253
12.211505417515	0.76793466417429
12.176785458976	0.76801919835523
12.142262373431	0.76810361157261
12.107934491115	0.76818791099618
12.073800161095	0.76827210369837
12.039857751004	0.76835619665459
12.006105646776	0.76844019674339
11.972542252396	0.76852411074682
11.939165989646	0.76860794535059
11.905975297855	0.76869170714444
11.872968633663	0.76877540262236
11.840144470774	0.76885903818291
11.807501299724	0.76894262012952
11.775037627651	0.76902615467077
11.742751978065	0.76910964792075
11.710642890625	0.76919310589934
11.678708920919	0.76927653453259
11.646948640249	0.76935993965301
11.615360635413	0.76944332699997
11.583943508501	0.76952670221998
11.552695876686	0.76961007086714
11.521616372022	0.76969343840346
11.490703641242	0.76977681019922
11.459956345566	0.76986019153340
11.429373160503	0.76994358759404
11.398952775665	0.77002700347864
11.368693894577	0.77011044419457
11.338595234493	0.77019391465949
11.308655526217	0.77027741970173
11.278873513920	0.77036096406075
11.249247954972	0.77044455238755
11.219777619760	0.77052818924511
11.190461291527	0.77061187910883
11.161297766195	0.77069562636697
11.132285852209	0.77077943532111
11.103424370370	0.77086331018662
11.074712153676	0.77094725509309
11.046148047163	0.77103127408480
11.017730907755	0.77111537112125
10.989459604106	0.77119955007755
10.961333016453	0.77128381474500
10.933350036470	0.77136816883148
10.905509567115	0.77145261596203
10.877810522496	0.77153715967929
10.850251827723	0.77162180344401
10.822832418773	0.77170655063559
10.795551242348	0.77179140455255
10.768407255747	0.77187636841309
10.741399426729	0.77196144535555
10.714526733381	0.77204663843897
10.687788163993	0.77213195064365
10.661182716927	0.77221738487159
10.634709400497	0.77230294394711
10.608367232838	0.77238863061735
10.582155241793	0.77247444755282
10.556072464789	0.77256039734793
10.530117948718	0.77264648252158
10.504290749825	0.77273270551764
10.478589933590	0.77281906870559
10.453014574616	0.77290557438101
10.427563756522	0.77299222476617
10.402236571825	0.77307902201060
10.377032121841	0.77316596819162
10.351949516575	0.77325306531497
10.326987874612	0.77334031531531
10.302146323024	0.77342772005685
10.277423997257	0.77351528133391
10.252820041040	0.77360300087147
10.228333606278	0.77369088032580
10.203963852961	0.77377892128501
10.179709949066	0.77386712526962
10.155571070461	0.77395549373320
10.131546400811	0.77404402806291
10.107635131490	0.77413272958010
10.083836461487	0.77422159954094
10.060149597315	0.77431063913694
10.036573752929	0.77439984949563
10.013108149633	0.77448923168107
9.9897520159947	0.77457878669452
9.9665045877660	0.77466851547501
9.9433651077944	0.77475841889993
9.9203328259431	0.77484849778564
9.8974069990096	0.77493875288808
9.8745868906456	0.77502918490337
9.8518717712783	0.77511979446839
9.8292609180328	0.77521058216144
9.8067536146549	0.77530154850279
9.7843491514360	0.77539269395529
9.7620468251384	0.77548401892503
9.7398459389214	0.77557552376189
9.7177458022690	0.77566720876016
9.6957457309185	0.77575907415917
9.6738450467893	0.77585112014388
9.6520430779137	0.77594334684550
9.6303391583681	0.77603575434208
9.6087326282051	0.77612834265912
9.5872228333866	0.77622111177022
9.5658091257179	0.77631406159762
9.5444908627826	0.77640719201286
9.5232674078780	0.77650050283738
9.5021381299525	0.77659399384311
9.4811024035421	0.77668766475308
9.4601596087094	0.77678151524205
9.4393091309824	0.77687554493709
9.4185503612944	0.77696975341819
9.3978826959248	0.77706414021889
9.3773055364404	0.77715870482685
9.3568182896380	0.77725344668447
9.3364203674868	0.77734836518951
9.3161111870727	0.77744345969565
9.2958901705426	0.77753872951313
9.2757567450495	0.77763417390934
9.2557103426984	0.77772979210940
9.2357504004929	0.77782558329679
9.2158763602828	0.77792154661393
9.1960876687117	0.77801768116275
9.1763837771656	0.77811398600535
9.1567641417227	0.77821046016452
9.1372282231027	0.77830710262439
9.1177754866180	0.77840391233098
9.0984054021244	0.77850088819281
9.0791174439733	0.77859802908148
9.0599110909640	0.77869533383227
9.0407858262967	0.77879280124468
9.0217411375263	0.77889043008309
9.0027765165165	0.77898821907725
8.9838914593947	0.77908616692293
8.9650854665072	0.77918427228246
8.9463580423754	0.77928253378533
8.9277086956522	0.77938095002873
8.9091369390788	0.77947951957814
8.8906422894425	0.77957824096791
8.8722242675348	0.77967711270181
8.8538823981099	0.77977613325359
8.8356162098438	0.77987530106758
8.8174252352941	0.77997461455920
8.7993090108600	0.78007407211553
8.7812670767428	0.78017367209592
8.7632989769073	0.78027341283245
8.7454042590432	0.78037329263057
8.7275824745269	0.78047330976958
8.7098331783847	0.78057346250324
8.6921559292549	0.78067374906024
8.6745502893519	0.78077416764481
8.6570158244297	0.78087471643721
8.6395521037464	0.78097539359430
8.6221587000288	0.78107619725004
8.6048351894374	0.78117712551605
8.5875811515325	0.78127817648211
8.5703961692396	0.78137934821672
8.5532798288160	0.78148063876759
8.5362317198178	0.78158204616216
8.5192514350668	0.78168356840813
8.5023385706183	0.78178520349399
8.4854927257288	0.78188694938947
8.4687135028249	0.78198880404611
8.4520005074711	0.78209076539774
8.4353533483399	0.78219283136097
8.4187716371806	0.78229499983570
8.4022549887892	0.78239726870562
8.3858030209790	0.78249963583867
8.3694153545505	0.78260209908757
8.3530916132627	0.78270465629028
8.3368314238042	0.78280730527050
8.3206344157646	0.78291004383811
8.3045002216066	0.78301286978968
8.2884284766381	0.78311578090894
8.2724188189845	0.78321877496723
8.2564708895621	0.78332184972397
8.2405843320506	0.78342500292713
8.2247587928669	0.78352823231368
8.2089939211391	0.78363153561005
8.1932893686800	0.78373491053257
8.1776447899618	0.78383835478792
8.1620598420909	0.78394186607359
8.1465341847826	0.78404544207828
8.1310674803363	0.78414908048240
8.1156593936113	0.78425277895842
8.1003095920022	0.78435653517138
8.0850177454153	0.78446034677925
8.0697835262450	0.78456421143340
8.0546066093498	0.78466812677897
8.0394866720300	0.78477209045534
8.0244233940043	0.78487610009648
8.0094164573871	0.78498015333140
7.9944655466667	0.78508424778455
7.9795703486825	0.78518838107616
7.9647305526036	0.78529255082273
7.9499458499072	0.78539675463735
7.9352159343568	0.78550099013008
7.9205405019815	0.78560525490841
7.9059192510549	0.78570954657753
7.8913518820742	0.78581386274081
7.8768380977404	0.78591820100010
7.8623776029373	0.78602255895612
7.8479701047120	0.78612693420882
7.8336153122550	0.78623132435774
7.8193129368805	0.78633572700237
7.8050626920073	0.78644013974250
7.7908642931393	0.78654456017853
7.7767174578470	0.78664898591187
7.7626219057483	0.78675341454526
7.7485773584906	0.78685784368307
7.7345835397317	0.78696227093167
7.7206401751223	0.78706669389973
7.7067469922879	0.78717111019857
7.6929037208109	0.78727551744245
7.6791100922131	0.78737991324888
7.6653658399386	0.78748429523898
7.6516706993364	0.78758866103770
7.6380244076433	0.78769300827420
7.6244267039674	0.78779733458212
7.6108773292714	0.78790163759983
7.5973760263558	0.78800591497080
7.5839225398432	0.78811016434381
7.5705166161616	0.78821438337328
7.5571580035291	0.78831856971950
7.5438464519376	0.78842272104896
7.5305817131374	0.78852683503454
7.5173635406219	0.78863090935586
7.5041916896120	0.78873494169947
7.4910659170415	0.78883892975914
7.4779859815415	0.78894287123609
7.4649516434263	0.78904676383926
7.4519626646781	0.78915060528552
7.4390188089330	0.78925439329995
7.4261198414664	0.78935812561603
7.4132655291790	0.78946179997588
7.4004556405826	0.78956541413052
7.3876899457861	0.78966896584005
7.3749682164822	0.78977245287387
7.3622902259332	0.78987587301091
7.3496557489581	0.78997922403984
7.3370645619187	0.79008250375925
7.3245164427071	0.79018570997787
7.3120111707317	0.79028884051476
7.2995485269053	0.79039189319950
7.2871282936315	0.79049486587237
7.2747502547925	0.79059775638456
7.2624141957364	0.79070056259830
7.2501199032648	0.79080328238708
7.2378671656205	0.79090591363581
7.2256557724753	0.79100845424098
7.2134855149182	0.79111090211080
7.2013561854432	0.79121325516540
7.1892675779376	0.79131551133697
7.1772194876706	0.79141766856987
7.1652117112811	0.79151972482086
7.1532440467669	0.79162167805915
7.1413162934731	0.79172352626660
7.1294282520809	0.79182526743782
7.1175797245964	0.79192689958031
7.1057705143399	0.79202842071461
7.0940004259347	0.79212982887436
7.0822692652965	0.79223112210649
7.0705768396226	0.79233229847129
7.0589229573817	0.79243335604252
7.0473074283028	0.79253429290752
7.0357300633654	0.79263510716733
7.0241906747891	0.79273579693676
7.0126890760234	0.79283636034451
7.0012250817375	0.79293679553324
6.9897985078107	0.79303710065965
6.9784091713222	0.79313727389459
6.9670568905415	0.79323731342311
6.9557414849188	0.79333721744457
6.9444627750753	0.79343698417265
6.9332205827937	0.79353661183549
6.9220147310090	0.79363609867570
6.9108450437990	0.79373544295043
6.8997113463751	0.79383464293145
6.8886134650735	0.79393369690516
6.8775512273457	0.79403260317270
6.8665244617499	0.79413136004991
6.8555329979419	0.79422996586746
6.8445766666667	0.79432841897081
6.8336552997493	0.79442671772031
6.8227687300865	0.79452486049118
6.8119167916383	0.79462284567356
6.8010993194192	0.79472067167253
6.7903161494904	0.79481833690813
6.7795671189507	0.79491583981538
6.7688520659291	0.79501317884427
6.7581708295762	0.79511035245982
6.7475232500563	0.79520735914201
6.7369091685393	0.79530419738588
6.7263284271932	0.79540086570142
6.7157808691756	0.79549736261367
6.7052663386267	0.79559368666263
6.6947846806610	0.79568983640331
6.6843357413601	0.79578581040567
6.6739193677649	0.79588160725465
6.6635354078684	0.79597722555009
6.6531837106081	0.79607266390678
6.6428641258586	0.79616792095437
6.6325765044248	0.79626299533737
6.6223206980340	0.79635788571512
6.6120965593295	0.79645259076175
6.6019039418630	0.79654710916614
6.5917427000879	0.79664143963187
6.5816126893524	0.79673558087721
6.5715137658922	0.79682953163503
6.5614457868243	0.79692329065278
6.5514086101399	0.79701685669242
6.5414020946978	0.79711022853037
6.5314261002179	0.79720340495747
6.5214804872743	0.79729638477889
6.5115651172893	0.79738916681409
6.5016798525266	0.79748174989675
6.4918245560849	0.79757413287467
6.4819990918919	0.79766631460976
6.4722033246978	0.79775829397792
6.4624371200690	0.79785006986896
6.4527003443823	0.79794164118655
6.4429928648184	0.79803300684815
6.4333145493562	0.79812416578486
6.4236652667667	0.79821511694141
6.4140448866068	0.79830585927603
6.4044532792138	0.79839639176038
6.3948903156997	0.79848671337942
6.3853558679446	0.79857682313138
6.3758498085921	0.79866672002760
6.3663720110427	0.79875640309247
6.3569223494487	0.79884587136331
6.3475006987084	0.79893512389028
6.3381069344609	0.79902415973627
6.3287409330800	0.79911297797679
6.3194025716695	0.79920157769985
6.3100917280572	0.79928995800588
6.3008082807902	0.79937811800759
6.2915521091291	0.79946605682987
6.2823230930427	0.79955377360966
6.2731211132036	0.79964126749587
6.2639460509820	0.79972853764918
6.2547977884415	0.79981558324202
6.2456762083333	0.79990240345836
6.2365811940919	0.79998899749365
6.2275126298297	0.80007536455466
6.2184704003319	0.80016150385933
6.2094543910522	0.80024741463672
6.2004644881075	0.80033309612679
6.1915005782734	0.80041854758032
6.1825625489792	0.80050376825877
6.1736502883031	0.80058875743412
6.1647636849681	0.80067351438879
6.1559026283368	0.80075803841544
6.1470670084068	0.80084232881685
6.1382567158067	0.80092638490583
6.1294716417910	0.80101020600499
6.1207116782360	0.80109379144669
6.1119767176351	0.80117714057282
6.1032666530945	0.80126025273473
6.0945813783289	0.80134312729301
6.0859207876573	0.80142576361741
6.0772847759984	0.80150816108664
6.0686732388664	0.80159031908829
6.0600860723671	0.80167223701859
6.0515231731934	0.80175391428235
6.0429844386212	0.80183535029276
6.0344697665056	0.80191654447126
6.0259790552764	0.80199749624737
6.0175122039342	0.80207820505857
6.0090691120465	0.80215867035011
6.0006496797438	0.80223889157490
5.9922538077154	0.80231886819332
5.9838813972056	0.80239859967309
5.9755323500100	0.80247808548910
5.9672065684713	0.80255732512328
5.9589039554760	0.80263631806442
5.9506244144502	0.80271506380804
5.9423678493558	0.80279356185619
5.9341341646873	0.80287181171737
5.9259232654675	0.80294981290632
5.9177350572444	0.80302756494385
5.9095694460871	0.80310506735675
5.9014263385827	0.80318231967758
5.8933056418321	0.80325932144453
5.8852072634472	0.80333607220128
5.8771311115468	0.80341257149681
5.8690770947533	0.80348881888530
5.8610451221896	0.80356481392592
5.8530351034752	0.80364055618270
5.8450469487229	0.80371604522438
5.8370805685358	0.80379128062424
5.8291358740035	0.80386626195998
5.8212127766990	0.80394098881351
5.8133111886756	0.80401546077086
5.8054310224632	0.80408967742198
5.7975721910656	0.80416363836062
5.7897346079567	0.80423734318413
5.7819181870781	0.80431079149339
5.7741228428351	0.80438398289258
5.7663484900942	0.80445691698907
5.7585950441798	0.80452959339326
5.7508624208709	0.80460201171844
5.7431505363985	0.80467417158063
5.7354593074421	0.80474607259845
5.7277886511272	0.80481771439295
5.7201384850219	0.80488909658748
5.7125087271341	0.80496021880755
5.7048992959087	0.80503108068066
5.6973101102242	0.80510168183620
5.6897410893908	0.80517202190525
5.6821921531463	0.80524210052051
5.6746632216544	0.80531191731610
5.6671542155009	0.80538147192743
5.6596650556919	0.80545076399110
5.6521956636501	0.80551979314472
5.6447459612126	0.80558855902680
5.6373158706281	0.80565706127662
5.6299053145540	0.80572529953404
5.6225142160540	0.80579327343946
5.6151424985952	0.80586098263361
5.6077900860456	0.80592842675746
5.6004569026714	0.80599560545208
5.5931428731343	0.80606251835852
5.5858479224893	0.80612916511767
5.5785719761816	0.80619554537016
5.5713149600446	0.80626165875620
5.5640768002970	0.80632750491550
5.5568574235403	0.80639308348711
5.5496567567568	0.80645839410935
5.5424747273063	0.80652343641963
5.5353112629247	0.80658821005440
5.5281662917204	0.80665271464899
5.5210397421731	0.80671694983752
5.5139315431304	0.80678091525276
5.5068416238060	0.80684461052609
5.4997699137773	0.80690803528730
5.4927163429828	0.80697118916455
5.4856808417200	0.80703407178425
5.4786633406433	0.80709668277095
5.4716637707611	0.80715902174724
5.4646820634342	0.80722108833367
5.4577181503732	0.80728288214862
5.4507719636364	0.80734440280825
5.4438434356274	0.80740564992634
5.4369324990932	0.80746662311429
5.4300390871219	0.80752732198094
5.4231631331404	0.80758774613254
5.4163045709124	0.80764789517266
5.4094633345363	0.80770776870206
5.4026393584430	0.80776736631868
5.3958325773938	0.80782668761750
5.3890429264785	0.80788573219050
5.3822703411131	0.80794449962655
5.3755147570378	0.80800298951139
5.3687761103152	0.80806120142749
5.3620543373278	0.80811913495404
5.3553493747767	0.80817678966685
5.3486611596789	0.80823416513829
5.3419896293656	0.80829126093725
5.3353347214807	0.80834807662904
5.3286963739780	0.80840461177535
5.3220745251198	0.80846086593422
5.3154691134752	0.80851683865993
5.3088800779175	0.80857252950299
5.3023073576229	0.80862793801010
5.2957508920685	0.80868306372404
5.2892106210303	0.80873790618370
5.2826864845815	0.80879246492399
5.2761784230905	0.80884673947579
5.2696863772192	0.80890072936597
5.2632102879213	0.80895443411728
5.2567500964405	0.80900785324838
5.2503057443082	0.80906098627376
5.2438771733427	0.80911383270373
5.2374643256464	0.80916639204441
5.2310671436050	0.80921866379765
5.2246855698850	0.80927064746108
5.2183195474326	0.80932234252803
5.2119690194715	0.80937374848755
5.2056339295016	0.80942486482437
5.1993142212973	0.80947569101890
5.1930098389052	0.80952622654720
5.1867207266436	0.80957647088101
5.1804468290997	0.80962642348769
5.1741880911288	0.80967608383025
5.1679444578521	0.80972545136737
5.1617158746556	0.80977452555333
5.1555022871883	0.80982330583809
5.1493036413604	0.80987179166723
5.1431198833419	0.80991998248201
5.1369509595613	0.80996787771934
5.1307968167037	0.81001547681183
5.1246574017094	0.81006277918776
5.1185326617722	0.81010978427113
5.1124225443383	0.81015649148166
5.1063269971044	0.81020290023484
5.1002459680163	0.81024900994191
5.0941794052676	0.81029482000993
5.0881272572980	0.81034032984178
5.0820894727920	0.81038553883618
5.0760660006773	0.81043044638776
5.0700567901235	0.81047505188709
5.0640617905405	0.81051935472066
5.0580809515775	0.81056335427102
5.0521142231210	0.81060704991671
5.0461615552937	0.81065044103239
5.0402228984533	0.81069352698886
5.0342982031906	0.81073630715308
5.0283874203287	0.81077878088827
5.0224905009214	0.81082094755393
5.0166073962517	0.81086280650590
5.0107380578305	0.81090435709641
5.0048824373957	0.81094559867419
4.9990404869101	0.81098653058445
4.9932121585610	0.81102715216902
4.9873974047579	0.81106746276636
4.9815961781323	0.81110746171167
4.9758084315353	0.81114714833693
4.9700341180371	0.81118652197100
4.9642731909256	0.81122558193966
4.9585256037049	0.81126432756571
4.9527913100942	0.81130275816908
4.9470702640264	0.81134087306682
4.9413624196473	0.81137867157329
4.9356677313138	0.81141615300017
4.9299861535932	0.81145331665657
4.9243176412615	0.81149016184914
4.9186621493027	0.81152668788211
4.9130196329072	0.81156289405744
4.9073900474709	0.81159877967489
4.9017733485939	0.81163434403209
4.8961694920790	0.81166958642470
4.8905784339315	0.81170450614645
4.8850001303569	0.81173910248927
4.8794345377604	0.81177337474339
4.8738816127459	0.81180732219747
4.8683413121143	0.81184094413864
4.8628135928629	0.81187423985271
4.8572984121841	0.81190720862417
4.8517957274640	0.81193984973639
4.8463054962819	0.81197216247171
4.8408276764088	0.81200414611151
4.8353622258065	0.81203579993640
