#Parameters = {thARC=0; nARC=2.75; thsub=1; p=1; nSub=3}
#"Wavelength / um"	"T (475) [Real Part]"
#---------------------------------------
14.989622900000	0.75000000734363
14.937342202292	0.75000244155737
14.885424925521	0.75000478640572
14.833867293419	0.75000704362862
14.782665581854	0.75000921494561
14.731816117936	0.75001130205593
14.681315279138	0.75001330663859
14.631159492435	0.75001523035258
14.581345233463	0.75001707483691
14.531869025691	0.75001884171076
14.482727439614	0.75002053257360
14.433917091960	0.75002214900530
14.385434644914	0.75002369256625
14.337276805356	0.75002516479751
14.289440324118	0.75002656722086
14.241921995249	0.75002790133902
14.194718655303	0.75002916863566
14.147827182633	0.75003037057562
14.101244496707	0.75003150860498
14.054967557431	0.75003258415116
14.008993364486	0.75003359862311
13.963318956684	0.75003455341138
13.917941411328	0.75003544988825
13.872857843591	0.75003628940787
13.828065405904	0.75003707330635
13.783561287356	0.75003780290193
13.739342713107	0.75003847949506
13.695406943810	0.75003910436855
13.651751275046	0.75003967878767
13.608373036768	0.75004020400029
13.565269592760	0.75004068123702
13.522438340099	0.75004111171128
13.479876708633	0.75004149661947
13.437582160466	0.75004183714110
13.395552189455	0.75004213443886
13.353784320713	0.75004238965881
13.312276110124	0.75004260393044
13.271025143869	0.75004277836685
13.230029037952	0.75004291406484
13.189285437747	0.75004301210505
13.148792017544	0.75004307355206
13.108546480105	0.75004309945456
13.068546556234	0.75004309084541
13.028790004346	0.75004304874182
12.989274610052	0.75004297414547
12.949998185745	0.75004286804257
12.910958570198	0.75004273140407
12.872153628167	0.75004256518573
12.833581250000	0.75004237032826
12.795239351259	0.75004214775744
12.757125872340	0.75004189838423
12.719238778108	0.75004162310495
12.681576057530	0.75004132280131
12.644135723323	0.75004099834062
12.606915811606	0.75004065057586
12.569914381551	0.75004028034584
12.533129515050	0.75003988847527
12.496559316382	0.75003947577494
12.460201911887	0.75003904304182
12.424055449648	0.75003859105916
12.388118099174	0.75003812059666
12.352388051092	0.75003763241054
12.316863516845	0.75003712724369
12.281542728390	0.75003660582581
12.246423937908	0.75003606887347
12.211505417515	0.75003551709031
12.176785458976	0.75003495116709
12.142262373431	0.75003437178185
12.107934491115	0.75003377960003
12.073800161095	0.75003317527458
12.039857751004	0.75003255944607
12.006105646776	0.75003193274282
11.972542252396	0.75003129578105
11.939165989646	0.75003064916493
11.905975297855	0.75002999348676
11.872968633663	0.75002932932707
11.840144470774	0.75002865725472
11.807501299724	0.75002797782705
11.775037627651	0.75002729158996
11.742751978065	0.75002659907807
11.710642890625	0.75002590081479
11.678708920919	0.75002519731248
11.646948640249	0.75002448907254
11.615360635413	0.75002377658554
11.583943508501	0.75002306033132
11.552695876686	0.75002234077912
11.521616372022	0.75002161838768
11.490703641242	0.75002089360537
11.459956345566	0.75002016687031
11.429373160503	0.75001943861044
11.398952775665	0.75001870924369
11.368693894577	0.75001797917807
11.338595234493	0.75001724881175
11.308655526217	0.75001651853323
11.278873513920	0.75001578872142
11.249247954972	0.75001505974575
11.219777619760	0.75001433196627
11.190461291527	0.75001360573381
11.161297766195	0.75001288139003
11.132285852209	0.75001215926756
11.103424370370	0.75001143969011
11.074712153676	0.75001072297259
11.046148047163	0.75001000942116
11.017730907755	0.75000929933341
10.989459604106	0.75000859299844
10.961333016453	0.75000789069695
10.933350036470	0.75000719270137
10.905509567115	0.75000649927593
10.877810522496	0.75000581067684
10.850251827723	0.75000512715230
10.822832418773	0.75000444894267
10.795551242348	0.75000377628057
10.768407255747	0.75000310939093
10.741399426729	0.75000244849117
10.714526733381	0.75000179379124
10.687788163993	0.75000114549376
10.661182716927	0.75000050379408
10.634709400497	0.74999986888045
10.608367232838	0.74999924093405
10.582155241793	0.74999862012911
10.556072464789	0.74999800663305
10.530117948718	0.74999740060651
10.504290749825	0.74999680220352
10.478589933590	0.74999621157152
10.453014574616	0.74999562885154
10.427563756522	0.74999505417824
10.402236571825	0.74999448768001
10.377032121841	0.74999392947909
10.351949516575	0.74999337969165
10.326987874612	0.74999283842789
10.302146323024	0.74999230579213
10.277423997257	0.74999178188290
10.252820041040	0.74999126679303
10.228333606278	0.74999076060977
10.203963852961	0.74999026341483
10.179709949066	0.74998977528454
10.155571070461	0.74998929628985
10.131546400811	0.74998882649653
10.107635131490	0.74998836596516
10.083836461487	0.74998791475126
10.060149597315	0.74998747290541
10.036573752929	0.74998704047326
10.013108149633	0.74998661749570
9.9897520159947	0.74998620400888
9.9665045877660	0.74998580004435
9.9433651077944	0.74998540562910
9.9203328259431	0.74998502078565
9.8974069990096	0.74998464553219
9.8745868906456	0.74998427988257
9.8518717712783	0.74998392384648
9.8292609180328	0.74998357742944
9.8067536146549	0.74998324063296
9.7843491514360	0.74998291345458
9.7620468251384	0.74998259588793
9.7398459389214	0.74998228792288
9.7177458022690	0.74998198954555
9.6957457309185	0.74998170073841
9.6738450467893	0.74998142148038
9.6520430779137	0.74998115174687
9.6303391583681	0.74998089150989
9.6087326282051	0.74998064073810
9.5872228333866	0.74998039939690
9.5658091257179	0.74998016744852
9.5444908627826	0.74997994485203
9.5232674078780	0.74997973156351
9.5021381299525	0.74997952753603
9.4811024035421	0.74997933271979
9.4601596087094	0.74997914706215
9.4393091309824	0.74997897050772
9.4185503612944	0.74997880299841
9.3978826959248	0.74997864447355
9.3773055364404	0.74997849486990
9.3568182896380	0.74997835412173
9.3364203674868	0.74997822216093
9.3161111870727	0.74997809891702
9.2958901705426	0.74997798431727
9.2757567450495	0.74997787828671
9.2557103426984	0.74997778074824
9.2357504004929	0.74997769162267
9.2158763602828	0.74997761082881
9.1960876687117	0.74997753828350
9.1763837771656	0.74997747390168
9.1567641417227	0.74997741759649
9.1372282231027	0.74997736927927
9.1177754866180	0.74997732885966
9.0984054021244	0.74997729624566
9.0791174439733	0.74997727134367
9.0599110909640	0.74997725405858
9.0407858262967	0.74997724429379
9.0217411375263	0.74997724195128
9.0027765165165	0.74997724693169
8.9838914593947	0.74997725913435
8.9650854665072	0.74997727845734
8.9463580423754	0.74997730479755
8.9277086956522	0.74997733805074
8.9091369390788	0.74997737811158
8.8906422894425	0.74997742487372
8.8722242675348	0.74997747822981
8.8538823981099	0.74997753807160
8.8356162098438	0.74997760428995
8.8174252352941	0.74997767677490
8.7993090108600	0.74997775541571
8.7812670767428	0.74997784010093
8.7632989769073	0.74997793071841
8.7454042590432	0.74997802715538
8.7275824745269	0.74997812929851
8.7098331783847	0.74997823703391
8.6921559292549	0.74997835024721
8.6745502893519	0.74997846882359
8.6570158244297	0.74997859264785
8.6395521037464	0.74997872160442
8.6221587000288	0.74997885557743
8.6048351894374	0.74997899445073
8.5875811515325	0.74997913810796
8.5703961692396	0.74997928643256
8.5532798288160	0.74997943930786
8.5362317198178	0.74997959661706
8.5192514350668	0.74997975824331
8.5023385706183	0.74997992406973
8.4854927257288	0.74998009397947
8.4687135028249	0.74998026785573
8.4520005074711	0.74998044558180
8.4353533483399	0.74998062704111
8.4187716371806	0.74998081211725
8.4022549887892	0.74998100069401
8.3858030209790	0.74998119265543
8.3694153545505	0.74998138788580
8.3530916132627	0.74998158626974
8.3368314238042	0.74998178769219
8.3206344157646	0.74998199203849
8.3045002216066	0.74998219919435
8.2884284766381	0.74998240904594
8.2724188189845	0.74998262147991
8.2564708895621	0.74998283638337
8.2405843320506	0.74998305364398
8.2247587928669	0.74998327314998
8.2089939211391	0.74998349479016
8.1932893686800	0.74998371845394
8.1776447899618	0.74998394403138
8.1620598420909	0.74998417141323
8.1465341847826	0.74998440049091
8.1310674803363	0.74998463115658
8.1156593936113	0.74998486330314
8.1003095920022	0.74998509682426
8.0850177454153	0.74998533161442
8.0697835262450	0.74998556756892
8.0546066093498	0.74998580458389
8.0394866720300	0.74998604255634
8.0244233940043	0.74998628138418
8.0094164573871	0.74998652096621
7.9944655466667	0.74998676120218
7.9795703486825	0.74998700199278
7.9647305526036	0.74998724323969
7.9499458499072	0.74998748484557
7.9352159343568	0.74998772671410
7.9205405019815	0.74998796874999
7.9059192510549	0.74998821085899
7.8913518820742	0.74998845294794
7.8768380977404	0.74998869492475
7.8623776029373	0.74998893669841
7.8479701047120	0.74998917817907
7.8336153122550	0.74998941927797
7.8193129368805	0.74998965990753
7.8050626920073	0.74998989998132
7.7908642931393	0.74999013941407
7.7767174578470	0.74999037812173
7.7626219057483	0.74999061602143
7.7485773584906	0.74999085303152
7.7345835397317	0.74999108907158
7.7206401751223	0.74999132406243
7.7067469922879	0.74999155792615
7.6929037208109	0.74999179058605
7.6791100922131	0.74999202196675
7.6653658399386	0.74999225199413
7.6516706993364	0.74999248059536
7.6380244076433	0.74999270769893
7.6244267039674	0.74999293323460
7.6108773292714	0.74999315713348
7.5973760263558	0.74999337932800
7.5839225398432	0.74999359975191
7.5705166161616	0.74999381834030
7.5571580035291	0.74999403502961
7.5438464519376	0.74999424975762
7.5305817131374	0.74999446246349
7.5173635406219	0.74999467308771
7.5041916896120	0.74999488157215
7.4910659170415	0.74999508786006
7.4779859815415	0.74999529189603
7.4649516434263	0.74999549362607
7.4519626646781	0.74999569299754
7.4390188089330	0.74999588995919
7.4261198414664	0.74999608446116
7.4132655291790	0.74999627645497
7.4004556405826	0.74999646589353
7.3876899457861	0.74999665273115
7.3749682164822	0.74999683692350
7.3622902259332	0.74999701842767
7.3496557489581	0.74999719720213
7.3370645619187	0.74999737320675
7.3245164427071	0.74999754640276
7.3120111707317	0.74999771675280
7.2995485269053	0.74999788422090
7.2871282936315	0.74999804877246
7.2747502547925	0.74999821037428
7.2624141957364	0.74999836899452
7.2501199032648	0.74999852460272
7.2378671656205	0.74999867716981
7.2256557724753	0.74999882666808
7.2134855149182	0.74999897307119
7.2013561854432	0.74999911635414
7.1892675779376	0.74999925649332
7.1772194876706	0.74999939346646
7.1652117112811	0.74999952725264
7.1532440467669	0.74999965783227
7.1413162934731	0.74999978518711
7.1294282520809	0.74999990930024
7.1175797245964	0.75000003015609
7.1057705143399	0.75000014774037
7.0940004259347	0.75000026204012
7.0822692652965	0.75000037304370
7.0705768396226	0.75000048074073
7.0589229573817	0.75000058512216
7.0473074283028	0.75000068618018
7.0357300633654	0.75000078390827
7.0241906747891	0.75000087830119
7.0126890760234	0.75000096935493
7.0012250817375	0.75000105706674
6.9897985078107	0.75000114143509
6.9784091713222	0.75000122245971
6.9670568905415	0.75000130014151
6.9557414849188	0.75000137448264
6.9444627750753	0.75000144548641
6.9332205827937	0.75000151315736
6.9220147310090	0.75000157750117
6.9108450437990	0.75000163852471
6.8997113463751	0.75000169623598
6.8886134650735	0.75000175064415
6.8775512273457	0.75000180175950
6.8665244617499	0.75000184959343
6.8555329979419	0.75000189415847
6.8445766666667	0.75000193546822
6.8336552997493	0.75000197353737
6.8227687300865	0.75000200838169
6.8119167916383	0.75000204001799
6.8010993194192	0.75000206846415
6.7903161494904	0.75000209373905
6.7795671189507	0.75000211586262
6.7688520659291	0.75000213485577
6.7581708295762	0.75000215074042
6.7475232500563	0.75000216353946
6.7369091685393	0.75000217327673
6.7263284271932	0.75000217997706
6.7157808691756	0.75000218366616
6.7052663386267	0.75000218437072
6.6947846806610	0.75000218211829
6.6843357413601	0.75000217693733
6.6739193677649	0.75000216885719
6.6635354078684	0.75000215790806
6.6531837106081	0.75000214412100
6.6428641258586	0.75000212752788
6.6325765044248	0.75000210816141
6.6223206980340	0.75000208605508
6.6120965593295	0.75000206124319
6.6019039418630	0.75000203376079
6.5917427000879	0.75000200364371
6.5816126893524	0.75000197092848
6.5715137658922	0.75000193565240
6.5614457868243	0.75000189785345
6.5514086101399	0.75000185757031
6.5414020946978	0.75000181484234
6.5314261002179	0.75000176970955
6.5214804872743	0.75000172221259
6.5115651172893	0.75000167239277
6.5016798525266	0.75000162029197
6.4918245560849	0.75000156595269
6.4819990918919	0.75000150941800
6.4722033246978	0.75000145073153
6.4624371200690	0.75000138993746
6.4527003443823	0.75000132708049
6.4429928648184	0.75000126220585
6.4333145493562	0.75000119535925
6.4236652667667	0.75000112658687
6.4140448866068	0.75000105593537
6.4044532792138	0.75000098345186
6.3948903156997	0.75000090918384
6.3853558679446	0.75000083317928
6.3758498085921	0.75000075548648
6.3663720110427	0.75000067615418
6.3569223494487	0.75000059523142
6.3475006987084	0.75000051276764
6.3381069344609	0.75000042881256
6.3287409330800	0.75000034341624
6.3194025716695	0.75000025662903
6.3100917280572	0.75000016850154
6.3008082807902	0.75000007908465
6.2915521091291	0.74999998842948
6.2823230930427	0.74999989658739
6.2731211132036	0.74999980360993
6.2639460509820	0.74999970954884
6.2547977884415	0.74999961445606
6.2456762083333	0.74999951838366
6.2365811940919	0.74999942138387
6.2275126298297	0.74999932350904
6.2184704003319	0.74999922481163
6.2094543910522	0.74999912534419
6.2004644881075	0.74999902515935
6.1915005782734	0.74999892430979
6.1825625489792	0.74999882284825
6.1736502883031	0.74999872082749
6.1647636849681	0.74999861830026
6.1559026283368	0.74999851531932
6.1470670084068	0.74999841193743
6.1382567158067	0.74999830820727
6.1294716417910	0.74999820418150
6.1207116782360	0.74999809991269
6.1119767176351	0.74999799545333
6.1032666530945	0.74999789085581
6.0945813783289	0.74999778617240
6.0859207876573	0.74999768145524
6.0772847759984	0.74999757675633
6.0686732388664	0.74999747212748
6.0600860723671	0.74999736762035
6.0515231731934	0.74999726328639
6.0429844386212	0.74999715917684
6.0344697665056	0.74999705534273
6.0259790552764	0.74999695183483
6.0175122039342	0.74999684870368
6.0090691120465	0.74999674599952
6.0006496797438	0.74999664377233
5.9922538077154	0.74999654207180
5.9838813972056	0.74999644094728
5.9755323500100	0.74999634044782
5.9672065684713	0.74999624062211
5.9589039554760	0.74999614151850
5.9506244144502	0.74999604318497
5.9423678493558	0.74999594566911
5.9341341646873	0.74999584901811
5.9259232654675	0.74999575327879
5.9177350572444	0.74999565849749
5.9095694460871	0.74999556472017
5.9014263385827	0.74999547199230
5.8933056418321	0.74999538035892
5.8852072634472	0.74999528986458
5.8771311115468	0.74999520055334
5.8690770947533	0.74999511246877
5.8610451221896	0.74999502565395
5.8530351034752	0.74999494015140
5.8450469487229	0.74999485600312
5.8370805685358	0.74999477325059
5.8291358740035	0.74999469193468
5.8212127766990	0.74999461209575
5.8133111886756	0.74999453377353
5.8054310224632	0.74999445700719
5.7975721910656	0.74999438183529
5.7897346079567	0.74999430829577
5.7819181870781	0.74999423642596
5.7741228428351	0.74999416626255
5.7663484900942	0.74999409784158
5.7585950441798	0.74999403119844
5.7508624208709	0.74999396636787
5.7431505363985	0.74999390338391
5.7354593074421	0.74999384227995
5.7277886511272	0.74999378308866
5.7201384850219	0.74999372584203
5.7125087271341	0.74999367057133
5.7048992959087	0.74999361730711
5.6973101102242	0.74999356607920
5.6897410893908	0.74999351691670
5.6821921531463	0.74999346984794
5.6746632216544	0.74999342490053
5.6671542155009	0.74999338210131
5.6596650556919	0.74999334147636
5.6521956636501	0.74999330305097
5.6447459612126	0.74999326684967
5.6373158706281	0.74999323289618
5.6299053145540	0.74999320121345
5.6225142160540	0.74999317182362
5.6151424985952	0.74999314474802
5.6077900860456	0.74999312000717
5.6004569026714	0.74999309762078
5.5931428731343	0.74999307760771
5.5858479224893	0.74999305998602
5.5785719761816	0.74999304477293
5.5713149600446	0.74999303198480
5.5640768002970	0.74999302163718
5.5568574235403	0.74999301374473
5.5496567567568	0.74999300832129
5.5424747273063	0.74999300537983
5.5353112629247	0.74999300493246
5.5281662917204	0.74999300699043
5.5210397421731	0.74999301156411
5.5139315431304	0.74999301866301
5.5068416238060	0.74999302829575
5.4997699137773	0.74999304047010
5.4927163429828	0.74999305519293
5.4856808417200	0.74999307247022
5.4786633406433	0.74999309230709
5.4716637707611	0.74999311470776
5.4646820634342	0.74999313967556
5.4577181503732	0.74999316721294
5.4507719636364	0.74999319732144
5.4438434356274	0.74999323000174
5.4369324990932	0.74999326525359
5.4300390871219	0.74999330307588
5.4231631331404	0.74999334346659
5.4163045709124	0.74999338642281
5.4094633345363	0.74999343194073
5.4026393584430	0.74999348001566
5.3958325773938	0.74999353064201
5.3890429264785	0.74999358381330
5.3822703411131	0.74999363952216
5.3755147570378	0.74999369776032
5.3687761103152	0.74999375851864
5.3620543373278	0.74999382178708
5.3553493747767	0.74999388755472
5.3486611596789	0.74999395580977
5.3419896293656	0.74999402653953
5.3353347214807	0.74999409973045
5.3286963739780	0.74999417536809
5.3220745251198	0.74999425343715
5.3154691134752	0.74999433392145
5.3088800779175	0.74999441680396
5.3023073576229	0.74999450206678
5.2957508920685	0.74999458969114
5.2892106210303	0.74999467965743
5.2826864845815	0.74999477194521
5.2761784230905	0.74999486653315
5.2696863772192	0.74999496339911
5.2632102879213	0.74999506252013
5.2567500964405	0.74999516387238
5.2503057443082	0.74999526743123
5.2438771733427	0.74999537317124
5.2374643256464	0.74999548106614
5.2310671436050	0.74999559108885
5.2246855698850	0.74999570321152
5.2183195474326	0.74999581740546
5.2119690194715	0.74999593364123
5.2056339295016	0.74999605188860
5.1993142212973	0.74999617211655
5.1930098389052	0.74999629429332
5.1867207266436	0.74999641838637
5.1804468290997	0.74999654436243
5.1741880911288	0.74999667218746
5.1679444578521	0.74999680182671
5.1617158746556	0.74999693324468
5.1555022871883	0.74999706640518
5.1493036413604	0.74999720127129
5.1431198833419	0.74999733780539
5.1369509595613	0.74999747596918
5.1307968167037	0.74999761572367
5.1246574017094	0.74999775702919
5.1185326617722	0.74999789984542
5.1124225443383	0.74999804413137
5.1063269971044	0.74999818984544
5.1002459680163	0.74999833694537
5.0941794052676	0.74999848538827
5.0881272572980	0.74999863513065
5.0820894727920	0.74999878612843
5.0760660006773	0.74999893833691
5.0700567901235	0.74999909171085
5.0640617905405	0.74999924620441
5.0580809515775	0.74999940177120
5.0521142231210	0.74999955836429
5.0461615552937	0.74999971593622
5.0402228984533	0.74999987443900
5.0342982031906	0.75000003382413
5.0283874203287	0.75000019404262
5.0224905009214	0.75000035504499
5.0166073962517	0.75000051678130
5.0107380578305	0.75000067920113
5.0048824373957	0.75000084225362
4.9990404869101	0.75000100588749
4.9932121585610	0.75000117005104
4.9873974047579	0.75000133469213
4.9815961781323	0.75000149975827
4.9758084315353	0.75000166519656
4.9700341180371	0.75000183095375
4.9642731909256	0.75000199697624
4.9585256037049	0.75000216321006
4.9527913100942	0.75000232960097
4.9470702640264	0.75000249609437
4.9413624196473	0.75000266263539
4.9356677313138	0.75000282916889
4.9299861535932	0.75000299563942
4.9243176412615	0.75000316199134
4.9186621493027	0.75000332816872
4.9130196329072	0.75000349411544
4.9073900474709	0.75000365977516
4.9017733485939	0.75000382509136
4.8961694920790	0.75000399000733
4.8905784339315	0.75000415446620
4.8850001303569	0.75000431841099
4.8794345377604	0.75000448178454
4.8738816127459	0.75000464452961
4.8683413121143	0.75000480658886
4.8628135928629	0.75000496790485
4.8572984121841	0.75000512842010
4.8517957274640	0.75000528807706
4.8463054962819	0.75000544681815
4.8408276764088	0.75000560458579
4.8353622258065	0.75000576132239
