#Parameters = {thARC=0; nARC=1; thsub=1; p=1; nSub=3.25}
#"Wavelength / um"	"T (487) [Real Part]"
#---------------------------------------
14.989622900000	0.71972308803195
14.937342202292	0.71972897237449
14.885424925521	0.71973466217916
14.833867293419	0.71974016075606
14.782665581854	0.71974547138338
14.731816117936	0.71975059730755
14.681315279138	0.71975554174334
14.631159492435	0.71976030787389
14.581345233463	0.71976489885090
14.531869025691	0.71976931779470
14.482727439614	0.71977356779431
14.433917091960	0.71977765190763
14.385434644914	0.71978157316149
14.337276805356	0.71978533455176
14.289440324118	0.71978893904349
14.241921995249	0.71979238957103
14.194718655303	0.71979568903808
14.147827182633	0.71979884031789
14.101244496707	0.71980184625331
14.054967557431	0.71980470965697
14.008993364486	0.71980743331133
13.963318956684	0.71981001996887
13.917941411328	0.71981247235216
13.872857843591	0.71981479315403
13.828065405904	0.71981698503764
13.783561287356	0.71981905063668
13.739342713107	0.71982099255544
13.695406943810	0.71982281336894
13.651751275046	0.71982451562311
13.608373036768	0.71982610183488
13.565269592760	0.71982757449232
13.522438340099	0.71982893605477
13.479876708633	0.71983018895302
13.437582160466	0.71983133558937
13.395552189455	0.71983237833784
13.353784320713	0.71983331954425
13.312276110124	0.71983416152642
13.271025143869	0.71983490657426
13.230029037952	0.71983555694992
13.189285437747	0.71983611488798
13.148792017544	0.71983658259551
13.108546480105	0.71983696225231
13.068546556234	0.71983725601098
13.028790004346	0.71983746599709
12.989274610052	0.71983759430935
12.949998185745	0.71983764301973
12.910958570198	0.71983761417364
12.872153628167	0.71983750979002
12.833581250000	0.71983733186156
12.795239351259	0.71983708235482
12.757125872340	0.71983676321038
12.719238778108	0.71983637634299
12.681576057530	0.71983592364174
12.644135723323	0.71983540697020
12.606915811606	0.71983482816658
12.569914381551	0.71983418904390
12.533129515050	0.71983349139010
12.496559316382	0.71983273696826
12.460201911887	0.71983192751671
12.424055449648	0.71983106474921
12.388118099174	0.71983015035510
12.352388051092	0.71982918599947
12.316863516845	0.71982817332329
12.281542728390	0.71982711394361
12.246423937908	0.71982600945371
12.211505417515	0.71982486142322
12.176785458976	0.71982367139835
12.142262373431	0.71982244090199
12.107934491115	0.71982117143391
12.073800161095	0.71981986447092
12.039857751004	0.71981852146699
12.006105646776	0.71981714385349
11.972542252396	0.71981573303929
11.939165989646	0.71981429041093
11.905975297855	0.71981281733282
11.872968633663	0.71981131514738
11.840144470774	0.71980978517519
11.807501299724	0.71980822871520
11.775037627651	0.71980664704485
11.742751978065	0.71980504142025
11.710642890625	0.71980341307636
11.678708920919	0.71980176322713
11.646948640249	0.71980009306570
11.615360635413	0.71979840376453
11.583943508501	0.71979669647559
11.552695876686	0.71979497233051
11.521616372022	0.71979323244076
11.490703641242	0.71979147789781
11.459956345566	0.71978970977329
11.429373160503	0.71978792911918
11.398952775665	0.71978613696795
11.368693894577	0.71978433433274
11.338595234493	0.71978252220750
11.308655526217	0.71978070156722
11.278873513920	0.71977887336803
11.249247954972	0.71977703854739
11.219777619760	0.71977519802427
11.190461291527	0.71977335269930
11.161297766195	0.71977150345494
11.132285852209	0.71976965115565
11.103424370370	0.71976779664805
11.074712153676	0.71976594076108
11.046148047163	0.71976408430619
11.017730907755	0.71976222807747
10.989459604106	0.71976037285187
10.961333016453	0.71975851938928
10.933350036470	0.71975666843279
10.905509567115	0.71975482070878
10.877810522496	0.71975297692712
10.850251827723	0.71975113778135
10.822832418773	0.71974930394878
10.795551242348	0.71974747609074
10.768407255747	0.71974565485266
10.741399426729	0.71974384086431
10.714526733381	0.71974203473989
10.687788163993	0.71974023707825
10.661182716927	0.71973844846302
10.634709400497	0.71973666946278
10.608367232838	0.71973490063124
10.582155241793	0.71973314250736
10.556072464789	0.71973139561555
10.530117948718	0.71972966046581
10.504290749825	0.71972793755390
10.478589933590	0.71972622736150
10.453014574616	0.71972453035633
10.427563756522	0.71972284699239
10.402236571825	0.71972117771005
10.377032121841	0.71971952293622
10.351949516575	0.71971788308454
10.326987874612	0.71971625855548
10.302146323024	0.71971464973656
10.277423997257	0.71971305700247
10.252820041040	0.71971148071522
10.228333606278	0.71970992122431
10.203963852961	0.71970837886689
10.179709949066	0.71970685396790
10.155571070461	0.71970534684022
10.131546400811	0.71970385778485
10.107635131490	0.71970238709102
10.083836461487	0.71970093503639
10.060149597315	0.71969950188715
10.036573752929	0.71969808789822
10.013108149633	0.71969669331337
9.9897520159947	0.71969531836538
9.9665045877660	0.71969396327617
9.9433651077944	0.71969262825698
9.9203328259431	0.71969131350849
9.8974069990096	0.71969001922099
9.8745868906456	0.71968874557451
9.8518717712783	0.71968749273898
9.8292609180328	0.71968626087433
9.8067536146549	0.71968505013072
9.7843491514360	0.71968386064859
9.7620468251384	0.71968269255888
9.7398459389214	0.71968154598312
9.7177458022690	0.71968042103359
9.6957457309185	0.71967931781348
9.6738450467893	0.71967823641699
9.6520430779137	0.71967717692950
9.6303391583681	0.71967613942771
9.6087326282051	0.71967512397976
9.5872228333866	0.71967413064537
9.5658091257179	0.71967315947600
9.5444908627826	0.71967221051496
9.5232674078780	0.71967128379754
9.5021381299525	0.71967037935119
9.4811024035421	0.71966949719560
9.4601596087094	0.71966863734285
9.4393091309824	0.71966779979757
9.4185503612944	0.71966698455703
9.3978826959248	0.71966619161130
9.3773055364404	0.71966542094336
9.3568182896380	0.71966467252926
9.3364203674868	0.71966394633819
9.3161111870727	0.71966324233269
9.2958901705426	0.71966256046869
9.2757567450495	0.71966190069569
9.2557103426984	0.71966126295689
9.2357504004929	0.71966064718928
9.2158763602828	0.71966005332378
9.1960876687117	0.71965948128535
9.1763837771656	0.71965893099315
9.1567641417227	0.71965840236063
9.1372282231027	0.71965789529563
9.1177754866180	0.71965740970055
9.0984054021244	0.71965694547243
9.0791174439733	0.71965650250309
9.0599110909640	0.71965608067923
9.0407858262967	0.71965567988255
9.0217411375263	0.71965529998987
9.0027765165165	0.71965494087324
8.9838914593947	0.71965460240007
8.9650854665072	0.71965428443319
8.9463580423754	0.71965398683105
8.9277086956522	0.71965370944773
8.9091369390788	0.71965345213314
8.8906422894425	0.71965321473305
8.8722242675348	0.71965299708927
8.8538823981099	0.71965279903970
8.8356162098438	0.71965262041847
8.8174252352941	0.71965246105603
8.7993090108600	0.71965232077926
8.7812670767428	0.71965219941157
8.7632989769073	0.71965209677301
8.7454042590432	0.71965201268036
8.7275824745269	0.71965194694724
8.7098331783847	0.71965189938421
8.6921559292549	0.71965186979887
8.6745502893519	0.71965185799594
8.6570158244297	0.71965186377737
8.6395521037464	0.71965188694247
8.6221587000288	0.71965192728793
8.6048351894374	0.71965198460799
8.5875811515325	0.71965205869448
8.5703961692396	0.71965214933694
8.5532798288160	0.71965225632271
8.5362317198178	0.71965237943702
8.5192514350668	0.71965251846305
8.5023385706183	0.71965267318208
8.4854927257288	0.71965284337351
8.4687135028249	0.71965302881501
8.4520005074711	0.71965322928255
8.4353533483399	0.71965344455053
8.4187716371806	0.71965367439182
8.4022549887892	0.71965391857790
8.3858030209790	0.71965417687889
8.3694153545505	0.71965444906365
8.3530916132627	0.71965473489989
8.3368314238042	0.71965503415420
8.3206344157646	0.71965534659214
8.3045002216066	0.71965567197837
8.2884284766381	0.71965601007664
8.2724188189845	0.71965636064994
8.2564708895621	0.71965672346055
8.2405843320506	0.71965709827010
8.2247587928669	0.71965748483965
8.2089939211391	0.71965788292978
8.1932893686800	0.71965829230064
8.1776447899618	0.71965871271204
8.1620598420909	0.71965914392349
8.1465341847826	0.71965958569430
8.1310674803363	0.71966003778364
8.1156593936113	0.71966049995058
8.1003095920022	0.71966097195420
8.0850177454153	0.71966145355362
8.0697835262450	0.71966194450807
8.0546066093498	0.71966244457699
8.0394866720300	0.71966295352002
8.0244233940043	0.71966347109713
8.0094164573871	0.71966399706866
7.9944655466667	0.71966453119534
7.9795703486825	0.71966507323842
7.9647305526036	0.71966562295965
7.9499458499072	0.71966618012142
7.9352159343568	0.71966674448674
7.9205405019815	0.71966731581934
7.9059192510549	0.71966789388370
7.8913518820742	0.71966847844513
7.8768380977404	0.71966906926980
7.8623776029373	0.71966966612480
7.8479701047120	0.71967026877819
7.8336153122550	0.71967087699903
7.8193129368805	0.71967149055748
7.8050626920073	0.71967210922480
7.7908642931393	0.71967273277341
7.7767174578470	0.71967336097695
7.7626219057483	0.71967399361029
7.7485773584906	0.71967463044962
7.7345835397317	0.71967527127248
7.7206401751223	0.71967591585777
7.7067469922879	0.71967656398584
7.6929037208109	0.71967721543850
7.6791100922131	0.71967786999906
7.6653658399386	0.71967852745240
7.6516706993364	0.71967918758496
7.6380244076433	0.71967985018483
7.6244267039674	0.71968051504174
7.6108773292714	0.71968118194713
7.5973760263558	0.71968185069417
7.5839225398432	0.71968252107780
7.5705166161616	0.71968319289476
7.5571580035291	0.71968386594361
7.5438464519376	0.71968454002479
7.5305817131374	0.71968521494064
7.5173635406219	0.71968589049543
7.5041916896120	0.71968656649535
7.4910659170415	0.71968724274863
7.4779859815415	0.71968791906547
7.4649516434263	0.71968859525814
7.4519626646781	0.71968927114095
7.4390188089330	0.71968994653033
7.4261198414664	0.71969062124480
7.4132655291790	0.71969129510506
7.4004556405826	0.71969196793393
7.3876899457861	0.71969263955644
7.3749682164822	0.71969330979984
7.3622902259332	0.71969397849360
7.3496557489581	0.71969464546942
7.3370645619187	0.71969531056131
7.3245164427071	0.71969597360554
7.3120111707317	0.71969663444070
7.2995485269053	0.71969729290770
7.2871282936315	0.71969794884980
7.2747502547925	0.71969860211259
7.2624141957364	0.71969925254407
7.2501199032648	0.71969989999459
7.2378671656205	0.71970054431694
7.2256557724753	0.71970118536630
7.2134855149182	0.71970182300027
7.2013561854432	0.71970245707890
7.1892675779376	0.71970308746469
7.1772194876706	0.71970371402259
7.1652117112811	0.71970433662003
7.1532440467669	0.71970495512690
7.1413162934731	0.71970556941561
7.1294282520809	0.71970617936103
7.1175797245964	0.71970678484054
7.1057705143399	0.71970738573404
7.0940004259347	0.71970798192392
7.0822692652965	0.71970857329512
7.0705768396226	0.71970915973507
7.0589229573817	0.71970974113376
7.0473074283028	0.71971031738367
7.0357300633654	0.71971088837984
7.0241906747891	0.71971145401984
7.0126890760234	0.71971201420378
7.0012250817375	0.71971256883429
6.9897985078107	0.71971311781655
6.9784091713222	0.71971366105827
6.9670568905415	0.71971419846971
6.9557414849188	0.71971472996364
6.9444627750753	0.71971525545538
6.9332205827937	0.71971577486278
6.9220147310090	0.71971628810619
6.9108450437990	0.71971679510853
6.8997113463751	0.71971729579518
6.8886134650735	0.71971779009408
6.8775512273457	0.71971827793566
6.8665244617499	0.71971875925285
6.8555329979419	0.71971923398107
6.8445766666667	0.71971970205824
6.8336552997493	0.71972016342476
6.8227687300865	0.71972061802349
6.8119167916383	0.71972106579977
6.8010993194192	0.71972150670139
6.7903161494904	0.71972194067858
6.7795671189507	0.71972236768402
6.7688520659291	0.71972278767279
6.7581708295762	0.71972320060241
6.7475232500563	0.71972360643280
6.7369091685393	0.71972400512626
6.7263284271932	0.71972439664748
6.7157808691756	0.71972478096351
6.7052663386267	0.71972515804376
6.6947846806610	0.71972552785998
6.6843357413601	0.71972589038624
6.6739193677649	0.71972624559892
6.6635354078684	0.71972659347671
6.6531837106081	0.71972693400057
6.6428641258586	0.71972726715373
6.6325765044248	0.71972759292168
6.6223206980340	0.71972791129213
6.6120965593295	0.71972822225502
6.6019039418630	0.71972852580247
6.5917427000879	0.71972882192880
6.5816126893524	0.71972911063050
6.5715137658922	0.71972939190620
6.5614457868243	0.71972966575664
6.5514086101399	0.71972993218470
6.5414020946978	0.71973019119533
6.5314261002179	0.71973044279555
6.5214804872743	0.71973068699446
6.5115651172893	0.71973092380314
6.5016798525266	0.71973115323473
6.4918245560849	0.71973137530433
6.4819990918919	0.71973159002901
6.4722033246978	0.71973179742780
6.4624371200690	0.71973199752165
6.4527003443823	0.71973219033341
6.4429928648184	0.71973237588781
6.4333145493562	0.71973255421145
6.4236652667667	0.71973272533275
6.4140448866068	0.71973288928195
6.4044532792138	0.71973304609109
6.3948903156997	0.71973319579395
6.3853558679446	0.71973333842609
6.3758498085921	0.71973347402476
6.3663720110427	0.71973360262891
6.3569223494487	0.71973372427917
6.3475006987084	0.71973383901780
6.3381069344609	0.71973394688870
6.3287409330800	0.71973404793736
6.3194025716695	0.71973414221082
6.3100917280572	0.71973422975770
6.3008082807902	0.71973431062811
6.2915521091291	0.71973438487368
6.2823230930427	0.71973445254749
6.2731211132036	0.71973451370407
6.2639460509820	0.71973456839936
6.2547977884415	0.71973461669070
6.2456762083333	0.71973465863679
6.2365811940919	0.71973469429767
6.2275126298297	0.71973472373467
6.2184704003319	0.71973474701044
6.2094543910522	0.71973476418886
6.2004644881075	0.71973477533504
6.1915005782734	0.71973478051531
6.1825625489792	0.71973477979716
6.1736502883031	0.71973477324923
6.1647636849681	0.71973476094129
6.1559026283368	0.71973474294420
6.1470670084068	0.71973471932986
6.1382567158067	0.71973469017126
6.1294716417910	0.71973465554235
6.1207116782360	0.71973461551809
6.1119767176351	0.71973457017439
6.1032666530945	0.71973451958809
6.0945813783289	0.71973446383691
6.0859207876573	0.71973440299945
6.0772847759984	0.71973433715518
6.0686732388664	0.71973426638435
6.0600860723671	0.71973419076802
6.0515231731934	0.71973411038798
6.0429844386212	0.71973402532679
6.0344697665056	0.71973393566769
6.0259790552764	0.71973384149459
6.0175122039342	0.71973374289207
6.0090691120465	0.71973363994531
6.0006496797438	0.71973353274009
5.9922538077154	0.71973342136275
5.9838813972056	0.71973330590017
5.9755323500100	0.71973318643973
5.9672065684713	0.71973306306930
5.9589039554760	0.71973293587720
5.9506244144502	0.71973280495217
5.9423678493558	0.71973267038334
5.9341341646873	0.71973253226024
5.9259232654675	0.71973239067270
5.9177350572444	0.71973224571090
5.9095694460871	0.71973209746530
5.9014263385827	0.71973194602659
5.8933056418321	0.71973179148574
5.8852072634472	0.71973163393389
5.8771311115468	0.71973147346239
5.8690770947533	0.71973131016270
5.8610451221896	0.71973114412645
5.8530351034752	0.71973097544534
5.8450469487229	0.71973080421115
5.8370805685358	0.71973063051571
5.8291358740035	0.71973045445088
5.8212127766990	0.71973027610849
5.8133111886756	0.71973009558034
5.8054310224632	0.71972991295821
5.7975721910656	0.71972972833374
5.7897346079567	0.71972954179850
5.7819181870781	0.71972935344393
5.7741228428351	0.71972916336127
5.7663484900942	0.71972897164161
5.7585950441798	0.71972877837583
5.7508624208709	0.71972858365455
5.7431505363985	0.71972838756817
5.7354593074421	0.71972819020677
5.7277886511272	0.71972799166015
5.7201384850219	0.71972779201775
5.7125087271341	0.71972759136869
5.7048992959087	0.71972738980169
5.6973101102242	0.71972718740507
5.6897410893908	0.71972698426673
5.6821921531463	0.71972678047412
5.6746632216544	0.71972657611423
5.6671542155009	0.71972637127353
5.6596650556919	0.71972616603801
5.6521956636501	0.71972596049310
5.6447459612126	0.71972575472368
5.6373158706281	0.71972554881405
5.6299053145540	0.71972534284789
5.6225142160540	0.71972513690829
5.6151424985952	0.71972493107767
5.6077900860456	0.71972472543779
5.6004569026714	0.71972452006975
5.5931428731343	0.71972431505390
5.5858479224893	0.71972411046991
5.5785719761816	0.71972390639669
5.5713149600446	0.71972370291237
5.5640768002970	0.71972350009431
5.5568574235403	0.71972329801909
5.5496567567568	0.71972309676244
5.5424747273063	0.71972289639926
5.5353112629247	0.71972269700360
5.5281662917204	0.71972249864864
5.5210397421731	0.71972230140666
5.5139315431304	0.71972210534903
5.5068416238060	0.71972191054621
5.4997699137773	0.71972171706771
5.4927163429828	0.71972152498208
5.4856808417200	0.71972133435689
5.4786633406433	0.71972114525875
5.4716637707611	0.71972095775323
5.4646820634342	0.71972077190491
5.4577181503732	0.71972058777732
5.4507719636364	0.71972040543293
5.4438434356274	0.71972022493319
5.4369324990932	0.71972004633843
5.4300390871219	0.71971986970790
5.4231631331404	0.71971969509978
5.4163045709124	0.71971952257109
5.4094633345363	0.71971935217774
5.4026393584430	0.71971918397452
5.3958325773938	0.71971901801503
5.3890429264785	0.71971885435173
5.3822703411131	0.71971869303591
5.3755147570378	0.71971853411766
5.3687761103152	0.71971837764588
5.3620543373278	0.71971822366826
5.3553493747767	0.71971807223128
5.3486611596789	0.71971792338020
5.3419896293656	0.71971777715903
5.3353347214807	0.71971763361054
5.3286963739780	0.71971749277625
5.3220745251198	0.71971735469643
5.3154691134752	0.71971721941006
5.3088800779175	0.71971708695487
5.3023073576229	0.71971695736729
5.2957508920685	0.71971683068246
5.2892106210303	0.71971670693424
5.2826864845815	0.71971658615516
5.2761784230905	0.71971646837647
5.2696863772192	0.71971635362809
5.2632102879213	0.71971624193862
5.2567500964405	0.71971613333536
5.2503057443082	0.71971602784426
5.2438771733427	0.71971592548994
5.2374643256464	0.71971582629569
5.2310671436050	0.71971573028347
5.2246855698850	0.71971563747387
5.2183195474326	0.71971554788618
5.2119690194715	0.71971546153830
5.2056339295016	0.71971537844681
5.1993142212973	0.71971529862692
5.1930098389052	0.71971522209252
5.1867207266436	0.71971514885611
5.1804468290997	0.71971507892886
5.1741880911288	0.71971501232058
5.1679444578521	0.71971494903975
5.1617158746556	0.71971488909345
5.1555022871883	0.71971483248746
5.1493036413604	0.71971477922618
5.1431198833419	0.71971472931266
5.1369509595613	0.71971468274863
5.1307968167037	0.71971463953446
5.1246574017094	0.71971459966916
5.1185326617722	0.71971456315044
5.1124225443383	0.71971452997464
5.1063269971044	0.71971450013680
5.1002459680163	0.71971447363060
5.0941794052676	0.71971445044842
5.0881272572980	0.71971443058132
5.0820894727920	0.71971441401903
5.0760660006773	0.71971440075000
5.0700567901235	0.71971439076135
5.0640617905405	0.71971438403892
5.0580809515775	0.71971438056725
5.0521142231210	0.71971438032961
5.0461615552937	0.71971438330799
5.0402228984533	0.71971438948309
5.0342982031906	0.71971439883439
5.0283874203287	0.71971441134009
5.0224905009214	0.71971442697713
5.0166073962517	0.71971444572126
5.0107380578305	0.71971446754696
5.0048824373957	0.71971449242751
4.9990404869101	0.71971452033499
4.9932121585610	0.71971455124028
4.9873974047579	0.71971458511305
4.9815961781323	0.71971462192182
4.9758084315353	0.71971466163392
4.9700341180371	0.71971470421556
4.9642731909256	0.71971474963177
4.9585256037049	0.71971479784647
4.9527913100942	0.71971484882245
4.9470702640264	0.71971490252141
4.9413624196473	0.71971495890392
4.9356677313138	0.71971501792951
4.9299861535932	0.71971507955662
4.9243176412615	0.71971514374263
4.9186621493027	0.71971521044391
4.9130196329072	0.71971527961577
4.9073900474709	0.71971535121252
4.9017733485939	0.71971542518748
4.8961694920790	0.71971550149298
4.8905784339315	0.71971558008039
4.8850001303569	0.71971566090011
4.8794345377604	0.71971574390165
4.8738816127459	0.71971582903354
4.8683413121143	0.71971591624345
4.8628135928629	0.71971600547816
4.8572984121841	0.71971609668355
4.8517957274640	0.71971618980469
4.8463054962819	0.71971628478579
4.8408276764088	0.71971638157025
4.8353622258065	0.71971648010066
