#Parameters = {thARC=0; nARC=3; thsub=1; p=1; nSub=3}
#"Wavelength / um"	"T (481) [Real Part]"
#---------------------------------------
14.989622900000	0.75000000729534
14.937342202292	0.75000244150938
14.885424925521	0.75000478635803
14.833867293419	0.75000704358124
14.782665581854	0.75000921489854
14.731816117936	0.75001130200917
14.681315279138	0.75001330659215
14.631159492435	0.75001523030646
14.581345233463	0.75001707479111
14.531869025691	0.75001884166528
14.482727439614	0.75002053252844
14.433917091960	0.75002214896047
14.385434644914	0.75002369252175
14.337276805356	0.75002516475334
14.289440324118	0.75002656717703
14.241921995249	0.75002790129552
14.194718655303	0.75002916859251
14.147827182633	0.75003037053282
14.101244496707	0.75003150856251
14.054967557431	0.75003258410905
14.008993364486	0.75003359858135
13.963318956684	0.75003455336998
13.917941411328	0.75003544984720
13.872857843591	0.75003628936718
13.828065405904	0.75003707326602
13.783561287356	0.75003780286196
13.739342713107	0.75003847945546
13.695406943810	0.75003910432932
13.651751275046	0.75003967874881
13.608373036768	0.75004020396181
13.565269592760	0.75004068119891
13.522438340099	0.75004111167355
13.479876708633	0.75004149658213
13.437582160466	0.75004183710414
13.395552189455	0.75004213440228
13.353784320713	0.75004238962262
13.312276110124	0.75004260389464
13.271025143869	0.75004277833144
13.230029037952	0.75004291402983
13.189285437747	0.75004301207043
13.148792017544	0.75004307351785
13.108546480105	0.75004309942074
13.068546556234	0.75004309081200
13.028790004346	0.75004304870882
12.989274610052	0.75004297411287
12.949998185745	0.75004286801039
12.910958570198	0.75004273137230
12.872153628167	0.75004256515438
12.833581250000	0.75004237029732
12.795239351259	0.75004214772692
12.757125872340	0.75004189835414
12.719238778108	0.75004162307527
12.681576057530	0.75004132277206
12.644135723323	0.75004099831180
12.606915811606	0.75004065054747
12.569914381551	0.75004028031788
12.533129515050	0.75003988844774
12.496559316382	0.75003947574785
12.460201911887	0.75003904301516
12.424055449648	0.75003859103294
12.388118099174	0.75003812057088
12.352388051092	0.75003763238520
12.316863516845	0.75003712721880
12.281542728390	0.75003660580136
12.246423937908	0.75003606884947
12.211505417515	0.75003551706676
12.176785458976	0.75003495114399
12.142262373431	0.75003437175921
12.107934491115	0.75003377957784
12.073800161095	0.75003317525284
12.039857751004	0.75003255942479
12.006105646776	0.75003193272200
11.972542252396	0.75003129576069
11.939165989646	0.75003064914503
11.905975297855	0.75002999346733
11.872968633663	0.75002932930810
11.840144470774	0.75002865723622
11.807501299724	0.75002797780901
11.775037627651	0.75002729157239
11.742751978065	0.75002659906097
11.710642890625	0.75002590079816
11.678708920919	0.75002519729632
11.646948640249	0.75002448905686
11.615360635413	0.75002377657033
11.583943508501	0.75002306031658
11.552695876686	0.75002234076486
11.521616372022	0.75002161837390
11.490703641242	0.75002089359207
11.459956345566	0.75002016685748
11.429373160503	0.75001943859810
11.398952775665	0.75001870923183
11.368693894577	0.75001797916669
11.338595234493	0.75001724880085
11.308655526217	0.75001651852282
11.278873513920	0.75001578871149
11.249247954972	0.75001505973630
11.219777619760	0.75001433195731
11.190461291527	0.75001360572534
11.161297766195	0.75001288138204
11.132285852209	0.75001215926006
11.103424370370	0.75001143968311
11.074712153676	0.75001072296607
11.046148047163	0.75001000941513
11.017730907755	0.75000929932787
10.989459604106	0.75000859299340
10.961333016453	0.75000789069240
10.933350036470	0.75000719269730
10.905509567115	0.75000649927236
10.877810522496	0.75000581067375
10.850251827723	0.75000512714971
10.822832418773	0.75000444894057
10.795551242348	0.75000377627896
10.768407255747	0.75000310938982
10.741399426729	0.75000244849055
10.714526733381	0.75000179379111
10.687788163993	0.75000114549412
10.661182716927	0.75000050379494
10.634709400497	0.74999986888180
10.608367232838	0.74999924093589
10.582155241793	0.74999862013144
10.556072464789	0.74999800663587
10.530117948718	0.74999740060983
10.504290749825	0.74999680220732
10.478589933590	0.74999621157582
10.453014574616	0.74999562885633
10.427563756522	0.74999505418352
10.402236571825	0.74999448768578
10.377032121841	0.74999392948535
10.351949516575	0.74999337969840
10.326987874612	0.74999283843513
10.302146323024	0.74999230579986
10.277423997257	0.74999178189111
10.252820041040	0.74999126680173
10.228333606278	0.74999076061896
10.203963852961	0.74999026342451
10.179709949066	0.74998977529469
10.155571070461	0.74998929630050
10.131546400811	0.74998882650766
10.107635131490	0.74998836597677
10.083836461487	0.74998791476335
10.060149597315	0.74998747291798
10.036573752929	0.74998704048631
10.013108149633	0.74998661750923
9.9897520159947	0.74998620402289
9.9665045877660	0.74998580005884
9.9433651077944	0.74998540564406
9.9203328259431	0.74998502080109
9.8974069990096	0.74998464554810
9.8745868906456	0.74998427989896
9.8518717712783	0.74998392386333
9.8292609180328	0.74998357744676
9.8067536146549	0.74998324065075
9.7843491514360	0.74998291347283
9.7620468251384	0.74998259590666
9.7398459389214	0.74998228794207
9.7177458022690	0.74998198956520
9.6957457309185	0.74998170075852
9.6738450467893	0.74998142150095
9.6520430779137	0.74998115176790
9.6303391583681	0.74998089153137
9.6087326282051	0.74998064076004
9.5872228333866	0.74998039941930
9.5658091257179	0.74998016747136
9.5444908627826	0.74997994487533
9.5232674078780	0.74997973158726
9.5021381299525	0.74997952756023
9.4811024035421	0.74997933274443
9.4601596087094	0.74997914708723
9.4393091309824	0.74997897053324
9.4185503612944	0.74997880302437
9.3978826959248	0.74997864449995
9.3773055364404	0.74997849489673
9.3568182896380	0.74997835414900
9.3364203674868	0.74997822218862
9.3161111870727	0.74997809894515
9.2958901705426	0.74997798434582
9.2757567450495	0.74997787831568
9.2557103426984	0.74997778077763
9.2357504004929	0.74997769165248
9.2158763602828	0.74997761085904
9.1960876687117	0.74997753831414
9.1763837771656	0.74997747393274
9.1567641417227	0.74997741762796
9.1372282231027	0.74997736931114
9.1177754866180	0.74997732889194
9.0984054021244	0.74997729627834
9.0791174439733	0.74997727137676
9.0599110909640	0.74997725409207
9.0407858262967	0.74997724432767
9.0217411375263	0.74997724198555
9.0027765165165	0.74997724696635
8.9838914593947	0.74997725916940
8.9650854665072	0.74997727849277
8.9463580423754	0.74997730483336
8.9277086956522	0.74997733808693
8.9091369390788	0.74997737814815
8.8906422894425	0.74997742491066
8.8722242675348	0.74997747826712
8.8538823981099	0.74997753810928
8.8356162098438	0.74997760432800
8.8174252352941	0.74997767681331
8.7993090108600	0.74997775545448
8.7812670767428	0.74997784014005
8.7632989769073	0.74997793075788
8.7454042590432	0.74997802719521
8.7275824745269	0.74997812933868
8.7098331783847	0.74997823707443
8.6921559292549	0.74997835028806
8.6745502893519	0.74997846886479
8.6570158244297	0.74997859268938
8.6395521037464	0.74997872164628
8.6221587000288	0.74997885561961
8.6048351894374	0.74997899449324
8.5875811515325	0.74997913815078
8.5703961692396	0.74997928647571
8.5532798288160	0.74997943935132
8.5362317198178	0.74997959666083
8.5192514350668	0.74997975828738
8.5023385706183	0.74997992411411
8.4854927257288	0.74998009402415
8.4687135028249	0.74998026790070
8.4520005074711	0.74998044562707
8.4353533483399	0.74998062708667
8.4187716371806	0.74998081216310
8.4022549887892	0.74998100074014
8.3858030209790	0.74998119270184
8.3694153545505	0.74998138793248
8.3530916132627	0.74998158631669
8.3368314238042	0.74998178773942
8.3206344157646	0.74998199208598
8.3045002216066	0.74998219924210
8.2884284766381	0.74998240909395
8.2724188189845	0.74998262152817
8.2564708895621	0.74998283643188
8.2405843320506	0.74998305369274
8.2247587928669	0.74998327319898
8.2089939211391	0.74998349483939
8.1932893686800	0.74998371850341
8.1776447899618	0.74998394408109
8.1620598420909	0.74998417146316
8.1465341847826	0.74998440054107
8.1310674803363	0.74998463120695
8.1156593936113	0.74998486335373
8.1003095920022	0.74998509687506
8.0850177454153	0.74998533166543
8.0697835262450	0.74998556762013
8.0546066093498	0.74998580463529
8.0394866720300	0.74998604260794
8.0244233940043	0.74998628143597
8.0094164573871	0.74998652101819
7.9944655466667	0.74998676125434
7.9795703486825	0.74998700204512
7.9647305526036	0.74998724329220
7.9499458499072	0.74998748489825
7.9352159343568	0.74998772676695
7.9205405019815	0.74998796880300
7.9059192510549	0.74998821091216
7.8913518820742	0.74998845300127
7.8768380977404	0.74998869497822
7.8623776029373	0.74998893675203
7.8479701047120	0.74998917823283
7.8336153122550	0.74998941933187
7.8193129368805	0.74998965996156
7.8050626920073	0.74998990003547
7.7908642931393	0.74999013946835
7.7767174578470	0.74999037817613
7.7626219057483	0.74999061607594
7.7485773584906	0.74999085308615
7.7345835397317	0.74999108912631
7.7206401751223	0.74999132411727
7.7067469922879	0.74999155798108
7.6929037208109	0.74999179064108
7.6791100922131	0.74999202202187
7.6653658399386	0.74999225204934
7.6516706993364	0.74999248065065
7.6380244076433	0.74999270775429
7.6244267039674	0.74999293329003
7.6108773292714	0.74999315718899
7.5973760263558	0.74999337938357
7.5839225398432	0.74999359980754
7.5705166161616	0.74999381839598
7.5571580035291	0.74999403508534
7.5438464519376	0.74999424981340
7.5305817131374	0.74999446251931
7.5173635406219	0.74999467314357
7.5041916896120	0.74999488162805
7.4910659170415	0.74999508791598
7.4779859815415	0.74999529195198
7.4649516434263	0.74999549368204
7.4519626646781	0.74999569305352
7.4390188089330	0.74999589001518
7.4261198414664	0.74999608451716
7.4132655291790	0.74999627651097
7.4004556405826	0.74999646594953
7.3876899457861	0.74999665278714
7.3749682164822	0.74999683697948
7.3622902259332	0.74999701848364
7.3496557489581	0.74999719725808
7.3370645619187	0.74999737326267
7.3245164427071	0.74999754645865
7.3120111707317	0.74999771680866
7.2995485269053	0.74999788427672
7.2871282936315	0.74999804882825
7.2747502547925	0.74999821043002
7.2624141957364	0.74999836905020
7.2501199032648	0.74999852465835
7.2378671656205	0.74999867722539
7.2256557724753	0.74999882672359
7.2134855149182	0.74999897312663
7.2013561854432	0.74999911640951
7.1892675779376	0.74999925654861
7.1772194876706	0.74999939352167
7.1652117112811	0.74999952730776
7.1532440467669	0.74999965788730
7.1413162934731	0.74999978524205
7.1294282520809	0.74999990935508
7.1175797245964	0.75000003021083
7.1057705143399	0.75000014779500
7.0940004259347	0.75000026209464
7.0822692652965	0.75000037309810
7.0705768396226	0.75000048079502
7.0589229573817	0.75000058517632
7.0473074283028	0.75000068623421
7.0357300633654	0.75000078396217
7.0241906747891	0.75000087835495
7.0126890760234	0.75000096940855
7.0012250817375	0.75000105712021
6.9897985078107	0.75000114148842
6.9784091713222	0.75000122251288
6.9670568905415	0.75000130019453
6.9557414849188	0.75000137453549
6.9444627750753	0.75000144553910
6.9332205827937	0.75000151320987
6.9220147310090	0.75000157755351
6.9108450437990	0.75000163857687
6.8997113463751	0.75000169628796
6.8886134650735	0.75000175069594
6.8775512273457	0.75000180181109
6.8665244617499	0.75000184964483
6.8555329979419	0.75000189420967
6.8445766666667	0.75000193551922
6.8336552997493	0.75000197358816
6.8227687300865	0.75000200843227
6.8119167916383	0.75000204006836
6.8010993194192	0.75000206851429
6.7903161494904	0.75000209378897
6.7795671189507	0.75000211591231
6.7688520659291	0.75000213490523
6.7581708295762	0.75000215078965
6.7475232500563	0.75000216358845
6.7369091685393	0.75000217332548
6.7263284271932	0.75000218002556
6.7157808691756	0.75000218371441
6.7052663386267	0.75000218441871
6.6947846806610	0.75000218216603
6.6843357413601	0.75000217698481
6.6739193677649	0.75000216890440
6.6635354078684	0.75000215795500
6.6531837106081	0.75000214416767
6.6428641258586	0.75000212757427
6.6325765044248	0.75000210820752
6.6223206980340	0.75000208610091
6.6120965593295	0.75000206128873
6.6019039418630	0.75000203380604
6.5917427000879	0.75000200368866
6.5816126893524	0.75000197097313
6.5715137658922	0.75000193569675
6.5614457868243	0.75000189789750
6.5514086101399	0.75000185761405
6.5414020946978	0.75000181488576
6.5314261002179	0.75000176975265
6.5214804872743	0.75000172225538
6.5115651172893	0.75000167243523
6.5016798525266	0.75000162033411
6.4918245560849	0.75000156599450
6.4819990918919	0.75000150945948
6.4722033246978	0.75000145077267
6.4624371200690	0.75000138997826
6.4527003443823	0.75000132712095
6.4429928648184	0.75000126224596
6.4333145493562	0.75000119539901
6.4236652667667	0.75000112662628
6.4140448866068	0.75000105597443
6.4044532792138	0.75000098349055
6.3948903156997	0.75000090922218
6.3853558679446	0.75000083321725
6.3758498085921	0.75000075552409
6.3663720110427	0.75000067619141
6.3569223494487	0.75000059526828
6.3475006987084	0.75000051280412
6.3381069344609	0.75000042884866
6.3287409330800	0.75000034345196
6.3194025716695	0.75000025666437
6.3100917280572	0.75000016853649
6.3008082807902	0.75000007911921
6.2915521091291	0.74999998846365
6.2823230930427	0.74999989662116
6.2731211132036	0.74999980364330
6.2639460509820	0.74999970958181
6.2547977884415	0.74999961448862
6.2456762083333	0.74999951841581
6.2365811940919	0.74999942141561
6.2275126298297	0.74999932354037
6.2184704003319	0.74999922484255
6.2094543910522	0.74999912537469
6.2004644881075	0.74999902518944
6.1915005782734	0.74999892433946
6.1825625489792	0.74999882287750
6.1736502883031	0.74999872085630
6.1647636849681	0.74999861832864
6.1559026283368	0.74999851534728
6.1470670084068	0.74999841196495
6.1382567158067	0.74999830823436
6.1294716417910	0.74999820420815
6.1207116782360	0.74999809993890
6.1119767176351	0.74999799547910
6.1032666530945	0.74999789088113
6.0945813783289	0.74999778619728
6.0859207876573	0.74999768147967
6.0772847759984	0.74999757678031
6.0686732388664	0.74999747215101
6.0600860723671	0.74999736764343
6.0515231731934	0.74999726330901
6.0429844386212	0.74999715919901
6.0344697665056	0.74999705536444
6.0259790552764	0.74999695185608
6.0175122039342	0.74999684872446
6.0090691120465	0.74999674601984
6.0006496797438	0.74999664379219
5.9922538077154	0.74999654209118
5.9838813972056	0.74999644096620
5.9755323500100	0.74999634046627
5.9672065684713	0.74999624064008
5.9589039554760	0.74999614153600
5.9506244144502	0.74999604320199
5.9423678493558	0.74999594568566
5.9341341646873	0.74999584903419
5.9259232654675	0.74999575329438
5.9177350572444	0.74999565851261
5.9095694460871	0.74999556473480
5.9014263385827	0.74999547200645
5.8933056418321	0.74999538037259
5.8852072634472	0.74999528987776
5.8771311115468	0.74999520056603
5.8690770947533	0.74999511248098
5.8610451221896	0.74999502566567
5.8530351034752	0.74999494016263
5.8450469487229	0.74999485601386
5.8370805685358	0.74999477326084
5.8291358740035	0.74999469194444
5.8212127766990	0.74999461210501
5.8133111886756	0.74999453378230
5.8054310224632	0.74999445701547
5.7975721910656	0.74999438184308
5.7897346079567	0.74999430830306
5.7819181870781	0.74999423643276
5.7741228428351	0.74999416626885
5.7663484900942	0.74999409784738
5.7585950441798	0.74999403120374
5.7508624208709	0.74999396637267
5.7431505363985	0.74999390338822
5.7354593074421	0.74999384228376
5.7277886511272	0.74999378309197
5.7201384850219	0.74999372584484
5.7125087271341	0.74999367057364
5.7048992959087	0.74999361730892
5.6973101102242	0.74999356608051
5.6897410893908	0.74999351691750
5.6821921531463	0.74999346984825
5.6746632216544	0.74999342490034
5.6671542155009	0.74999338210062
5.6596650556919	0.74999334147517
5.6521956636501	0.74999330304928
5.6447459612126	0.74999326684747
5.6373158706281	0.74999323289348
5.6299053145540	0.74999320121026
5.6225142160540	0.74999317181993
5.6151424985952	0.74999314474383
5.6077900860456	0.74999312000248
5.6004569026714	0.74999309761558
5.5931428731343	0.74999307760202
5.5858479224893	0.74999305997983
5.5785719761816	0.74999304476624
5.5713149600446	0.74999303197762
5.5640768002970	0.74999302162949
5.5568574235403	0.74999301373655
5.5496567567568	0.74999300831261
5.5424747273063	0.74999300537066
5.5353112629247	0.74999300492280
5.5281662917204	0.74999300698027
5.5210397421731	0.74999301155345
5.5139315431304	0.74999301865186
5.5068416238060	0.74999302828411
5.4997699137773	0.74999304045797
5.4927163429828	0.74999305518031
5.4856808417200	0.74999307245711
5.4786633406433	0.74999309229350
5.4716637707611	0.74999311469368
5.4646820634342	0.74999313966099
5.4577181503732	0.74999316719788
5.4507719636364	0.74999319730590
5.4438434356274	0.74999322998571
5.4369324990932	0.74999326523709
5.4300390871219	0.74999330305890
5.4231631331404	0.74999334344913
5.4163045709124	0.74999338640487
5.4094633345363	0.74999343192232
5.4026393584430	0.74999347999677
5.3958325773938	0.74999353062265
5.3890429264785	0.74999358379347
5.3822703411131	0.74999363950185
5.3755147570378	0.74999369773955
5.3687761103152	0.74999375849740
5.3620543373278	0.74999382176537
5.3553493747767	0.74999388753255
5.3486611596789	0.74999395578713
5.3419896293656	0.74999402651643
5.3353347214807	0.74999409970689
5.3286963739780	0.74999417534408
5.3220745251198	0.74999425341268
5.3154691134752	0.74999433389653
5.3088800779175	0.74999441677859
5.3023073576229	0.74999450204096
5.2957508920685	0.74999458966487
5.2892106210303	0.74999467963072
5.2826864845815	0.74999477191805
5.2761784230905	0.74999486650555
5.2696863772192	0.74999496337107
5.2632102879213	0.74999506249165
5.2567500964405	0.74999516384346
5.2503057443082	0.74999526740189
5.2438771733427	0.74999537314147
5.2374643256464	0.74999548103593
5.2310671436050	0.74999559105822
5.2246855698850	0.74999570318046
5.2183195474326	0.74999581737398
5.2119690194715	0.74999593360934
5.2056339295016	0.74999605185628
5.1993142212973	0.74999617208382
5.1930098389052	0.74999629426018
5.1867207266436	0.74999641835283
5.1804468290997	0.74999654432848
5.1741880911288	0.74999667215310
5.1679444578521	0.74999680179195
5.1617158746556	0.74999693320953
5.1555022871883	0.74999706636963
5.1493036413604	0.74999720123535
5.1431198833419	0.74999733776906
5.1369509595613	0.74999747593246
5.1307968167037	0.74999761568656
5.1246574017094	0.74999775699170
5.1185326617722	0.74999789980755
5.1124225443383	0.74999804409313
5.1063269971044	0.74999818980682
5.1002459680163	0.74999833690638
5.0941794052676	0.74999848534891
5.0881272572980	0.74999863509093
5.0820894727920	0.74999878608834
5.0760660006773	0.74999893829648
5.0700567901235	0.74999909167006
5.0640617905405	0.74999924616326
5.0580809515775	0.74999940172971
5.0521142231210	0.74999955832245
5.0461615552937	0.74999971589404
5.0402228984533	0.74999987439648
5.0342982031906	0.75000003378127
5.0283874203287	0.75000019399943
5.0224905009214	0.75000035500147
5.0166073962517	0.75000051673745
5.0107380578305	0.75000067915696
5.0048824373957	0.75000084220913
4.9990404869101	0.75000100584269
4.9932121585610	0.75000117000592
4.9873974047579	0.75000133464671
4.9815961781323	0.75000149971254
4.9758084315353	0.75000166515053
4.9700341180371	0.75000183090743
4.9642731909256	0.75000199692961
4.9585256037049	0.75000216316315
4.9527913100942	0.75000232955377
4.9470702640264	0.75000249604689
4.9413624196473	0.75000266258763
4.9356677313138	0.75000282912085
4.9299861535932	0.75000299559111
4.9243176412615	0.75000316194276
4.9186621493027	0.75000332811988
4.9130196329072	0.75000349406633
4.9073900474709	0.75000365972580
4.9017733485939	0.75000382504174
4.8961694920790	0.75000398995746
4.8905784339315	0.75000415441609
4.8850001303569	0.75000431836063
4.8794345377604	0.75000448173395
4.8738816127459	0.75000464447879
4.8683413121143	0.75000480653780
4.8628135928629	0.75000496785357
4.8572984121841	0.75000512836859
4.8517957274640	0.75000528802533
4.8463054962819	0.75000544676621
4.8408276764088	0.75000560453365
4.8353622258065	0.75000576127003
