#Parameters = {thARC=1; nARC=2.75; thsub=1; p=1; nSub=3}
#"Wavelength / um"	"T (480) [Real Part]"
#---------------------------------------
14.989622900000	0.80223713299462
14.937342202292	0.80243652443880
14.885424925521	0.80263455424643
14.833867293419	0.80283120690271
14.782665581854	0.80302646698636
14.731816117936	0.80322031917125
14.681315279138	0.80341274822802
14.631159492435	0.80360373902573
14.581345233463	0.80379327653346
14.531869025691	0.80398134582188
14.482727439614	0.80416793206488
14.433917091960	0.80435302054112
14.385434644914	0.80453659663558
14.337276805356	0.80471864584117
14.289440324118	0.80489915376021
14.241921995249	0.80507810610599
14.194718655303	0.80525548870429
14.147827182633	0.80543128749487
14.101244496707	0.80560548853297
14.054967557431	0.80577807799078
14.008993364486	0.80594904215894
13.963318956684	0.80611836744795
13.917941411328	0.80628604038962
13.872857843591	0.80645204763854
13.828065405904	0.80661637597344
13.783561287356	0.80677901229859
13.739342713107	0.80693994364524
13.695406943810	0.80709915717294
13.651751275046	0.80725664017091
13.608373036768	0.80741238005940
13.565269592760	0.80756636439099
13.522438340099	0.80771858085194
13.479876708633	0.80786901726346
13.437582160466	0.80801766158298
13.395552189455	0.80816450190547
13.353784320713	0.80830952646464
13.312276110124	0.80845272363424
13.271025143869	0.80859408192920
13.230029037952	0.80873359000690
13.189285437747	0.80887123666835
13.148792017544	0.80900701085933
13.108546480105	0.80914090167160
13.068546556234	0.80927289834401
13.028790004346	0.80940299026363
12.989274610052	0.80953116696684
12.949998185745	0.80965741814049
12.910958570198	0.80978173362287
12.872153628167	0.80990410340488
12.833581250000	0.81002451763100
12.795239351259	0.81014296660031
12.757125872340	0.81025944076757
12.719238778108	0.81037393074411
12.681576057530	0.81048642729888
12.644135723323	0.81059692135937
12.606915811606	0.81070540401256
12.569914381551	0.81081186650582
12.533129515050	0.81091630024784
12.496559316382	0.81101869680947
12.460201911887	0.81111904792464
12.424055449648	0.81121734549115
12.388118099174	0.81131358157155
12.352388051092	0.81140774839389
12.316863516845	0.81149983835259
12.281542728390	0.81158984400913
12.246423937908	0.81167775809286
12.211505417515	0.81176357350171
12.176785458976	0.81184728330290
12.142262373431	0.81192888073366
12.107934491115	0.81200835920190
12.073800161095	0.81208571228686
12.039857751004	0.81216093373975
12.006105646776	0.81223401748436
11.972542252396	0.81230495761770
11.939165989646	0.81237374841055
11.905975297855	0.81244038430800
11.872968633663	0.81250485993005
11.840144470774	0.81256717007209
11.807501299724	0.81262730970541
11.775037627651	0.81268527397769
11.742751978065	0.81274105821347
11.710642890625	0.81279465791457
11.678708920919	0.81284606876053
11.646948640249	0.81289528660901
11.615360635413	0.81294230749619
11.583943508501	0.81298712763710
11.552695876686	0.81302974342599
11.521616372022	0.81307015143664
11.490703641242	0.81310834842268
11.459956345566	0.81314433131785
11.429373160503	0.81317809723628
11.398952775665	0.81320964347272
11.368693894577	0.81323896750279
11.338595234493	0.81326606698313
11.308655526217	0.81329093975166
11.278873513920	0.81331358382766
11.249247954972	0.81333399741195
11.219777619760	0.81335217888704
11.190461291527	0.81336812681716
11.161297766195	0.81338183994840
11.132285852209	0.81339331720877
11.103424370370	0.81340255770818
11.074712153676	0.81340956073855
11.046148047163	0.81341432577371
11.017730907755	0.81341685246948
10.989459604106	0.81341714066353
10.961333016453	0.81341519037541
10.933350036470	0.81341100180640
10.905509567115	0.81340457533944
10.877810522496	0.81339591153902
10.850251827723	0.81338501115101
10.822832418773	0.81337187510249
10.795551242348	0.81335650450161
10.768407255747	0.81333890063736
10.741399426729	0.81331906497936
10.714526733381	0.81329699917759
10.687788163993	0.81327270506218
10.661182716927	0.81324618464306
10.634709400497	0.81321744010974
10.608367232838	0.81318647383089
10.582155241793	0.81315328835412
10.556072464789	0.81311788640549
10.530117948718	0.81308027088923
10.504290749825	0.81304044488730
10.478589933590	0.81299841165897
10.453014574616	0.81295417464039
10.427563756522	0.81290773744412
10.402236571825	0.81285910385868
10.377032121841	0.81280827784803
10.351949516575	0.81275526355105
10.326987874612	0.81270006528103
10.302146323024	0.81264268752512
10.277423997257	0.81258313494372
10.252820041040	0.81252141236994
10.228333606278	0.81245752480895
10.203963852961	0.81239147743738
10.179709949066	0.81232327560267
10.155571070461	0.81225292482240
10.131546400811	0.81218043078362
10.107635131490	0.81210579934213
10.083836461487	0.81202903652177
10.060149597315	0.81195014851373
10.036573752929	0.81186914167573
10.013108149633	0.81178602253129
9.9897520159947	0.81170079776893
9.9665045877660	0.81161347424136
9.9433651077944	0.81152405896471
9.9203328259431	0.81143255911760
9.8974069990096	0.81133898204037
9.8745868906456	0.81124333523416
9.8518717712783	0.81114562636005
9.8292609180328	0.81104586323813
9.8067536146549	0.81094405384660
9.7843491514360	0.81084020632084
9.7620468251384	0.81073432895241
9.7398459389214	0.81062643018816
9.7177458022690	0.81051651862917
9.6957457309185	0.81040460302980
9.6738450467893	0.81029069229667
9.6520430779137	0.81017479548761
9.6303391583681	0.81005692181064
9.6087326282051	0.80993708062289
9.5872228333866	0.80981528142955
9.5658091257179	0.80969153388277
9.5444908627826	0.80956584778055
9.5232674078780	0.80943823306566
9.5021381299525	0.80930869982447
9.4811024035421	0.80917725828583
9.4601596087094	0.80904391881991
9.4393091309824	0.80890869193704
9.4185503612944	0.80877158828651
9.3978826959248	0.80863261865539
9.3773055364404	0.80849179396732
9.3568182896380	0.80834912528130
9.3364203674868	0.80820462379044
9.3161111870727	0.80805830082072
9.2958901705426	0.80791016782975
9.2757567450495	0.80776023640550
9.2557103426984	0.80760851826502
9.2357504004929	0.80745502525315
9.2158763602828	0.80729976934119
9.1960876687117	0.80714276262566
9.1763837771656	0.80698401732693
9.1567641417227	0.80682354578789
9.1372282231027	0.80666136047263
9.1177754866180	0.80649747396506
9.0984054021244	0.80633189896758
9.0791174439733	0.80616464829972
9.0599110909640	0.80599573489671
9.0407858262967	0.80582517180815
9.0217411375263	0.80565297219657
9.0027765165165	0.80547914933606
8.9838914593947	0.80530371661083
8.9650854665072	0.80512668751383
8.9463580423754	0.80494807564526
8.9277086956522	0.80476789471122
8.9091369390788	0.80458615852216
8.8906422894425	0.80440288099155
8.8722242675348	0.80421807613433
8.8538823981099	0.80403175806549
8.8356162098438	0.80384394099860
8.8174252352941	0.80365463924433
8.7993090108600	0.80346386720896
8.7812670767428	0.80327163939291
8.7632989769073	0.80307797038927
8.7454042590432	0.80288287488223
8.7275824745269	0.80268636764566
8.7098331783847	0.80248846354156
8.6921559292549	0.80228917751858
8.6745502893519	0.80208852461047
8.6570158244297	0.80188651993458
8.6395521037464	0.80168317869035
8.6221587000288	0.80147851615778
8.6048351894374	0.80127254769589
8.5875811515325	0.80106528874120
8.5703961692396	0.80085675480620
8.5532798288160	0.80064696147780
8.5362317198178	0.80043592441581
8.5192514350668	0.80022365935139
8.5023385706183	0.80001018208552
8.4854927257288	0.79979550848745
8.4687135028249	0.79957965449313
8.4520005074711	0.79936263610373
8.4353533483399	0.79914446938404
8.4187716371806	0.79892517046091
8.4022549887892	0.79870475552179
8.3858030209790	0.79848324081308
8.3694153545505	0.79826064263866
8.3530916132627	0.79803697735830
8.3368314238042	0.79781226138615
8.3206344157646	0.79758651118914
8.3045002216066	0.79735974328551
8.2884284766381	0.79713197424323
8.2724188189845	0.79690322067844
8.2564708895621	0.79667349925395
8.2405843320506	0.79644282667769
8.2247587928669	0.79621121970115
8.2089939211391	0.79597869511791
8.1932893686800	0.79574526976204
8.1776447899618	0.79551096050661
8.1620598420909	0.79527578426219
8.1465341847826	0.79503975797527
8.1310674803363	0.79480289862680
8.1156593936113	0.79456522323063
8.1003095920022	0.79432674883206
8.0850177454153	0.79408749250626
8.0697835262450	0.79384747135683
8.0546066093498	0.79360670251430
8.0394866720300	0.79336520313458
8.0244233940043	0.79312299039756
8.0094164573871	0.79288008150556
7.9944655466667	0.79263649368186
7.9795703486825	0.79239224416929
7.9647305526036	0.79214735022869
7.9499458499072	0.79190182913749
7.9352159343568	0.79165569818825
7.9205405019815	0.79140897468720
7.9059192510549	0.79116167595283
7.8913518820742	0.79091381931442
7.8768380977404	0.79066542211062
7.8623776029373	0.79041650168806
7.8479701047120	0.79016707539990
7.8336153122550	0.78991716060442
7.8193129368805	0.78966677466365
7.8050626920073	0.78941593494197
7.7908642931393	0.78916465880469
7.7767174578470	0.78891296361673
7.7626219057483	0.78866086674121
7.7485773584906	0.78840838553810
7.7345835397317	0.78815553736286
7.7206401751223	0.78790233956512
7.7067469922879	0.78764880948732
7.6929037208109	0.78739496446337
7.6791100922131	0.78714082181738
7.6653658399386	0.78688639886231
7.6516706993364	0.78663171289868
7.6380244076433	0.78637678121326
7.6244267039674	0.78612162107782
7.6108773292714	0.78586624974786
7.5973760263558	0.78561068446129
7.5839225398432	0.78535494243723
7.5705166161616	0.78509904087475
7.5571580035291	0.78484299695163
7.5438464519376	0.78458682782313
7.5305817131374	0.78433055062079
7.5173635406219	0.78407418245122
7.5041916896120	0.78381774039489
7.4910659170415	0.78356124150496
7.4779859815415	0.78330470280609
7.4649516434263	0.78304814129330
7.4519626646781	0.78279157393081
7.4390188089330	0.78253501765086
7.4261198414664	0.78227848935263
7.4132655291790	0.78202200590108
7.4004556405826	0.78176558412586
7.3876899457861	0.78150924082020
7.3749682164822	0.78125299273981
7.3622902259332	0.78099685660182
7.3496557489581	0.78074084908371
7.3370645619187	0.78048498682223
7.3245164427071	0.78022928641238
7.3120111707317	0.77997376440636
7.2995485269053	0.77971843731256
7.2871282936315	0.77946332159453
7.2747502547925	0.77920843366999
7.2624141957364	0.77895378990984
7.2501199032648	0.77869940663716
7.2378671656205	0.77844530012627
7.2256557724753	0.77819148660177
7.2134855149182	0.77793798223759
7.2013561854432	0.77768480315603
7.1892675779376	0.77743196542689
7.1772194876706	0.77717948506650
7.1652117112811	0.77692737803688
7.1532440467669	0.77667566024481
7.1413162934731	0.77642434754096
7.1294282520809	0.77617345571903
7.1175797245964	0.77592300051491
7.1057705143399	0.77567299760580
7.0940004259347	0.77542346260942
7.0822692652965	0.77517441108317
7.0705768396226	0.77492585852331
7.0589229573817	0.77467782036419
7.0473074283028	0.77443031197743
7.0357300633654	0.77418334867120
7.0241906747891	0.77393694568937
7.0126890760234	0.77369111821087
7.0012250817375	0.77344588134883
6.9897985078107	0.77320125014995
6.9784091713222	0.77295723959372
6.9670568905415	0.77271386459174
6.9557414849188	0.77247113998703
6.9444627750753	0.77222908055329
6.9332205827937	0.77198770099432
6.9220147310090	0.77174701594326
6.9108450437990	0.77150703996201
6.8997113463751	0.77126778754055
6.8886134650735	0.77102927309633
6.8775512273457	0.77079151097361
6.8665244617499	0.77055451544292
6.8555329979419	0.77031830070040
6.8445766666667	0.77008288086724
6.8336552997493	0.76984826998911
6.8227687300865	0.76961448203555
6.8119167916383	0.76938153089948
6.8010993194192	0.76914943039660
6.7903161494904	0.76891819426489
6.7795671189507	0.76868783616404
6.7688520659291	0.76845836967499
6.7581708295762	0.76822980829939
6.7475232500563	0.76800216545911
6.7369091685393	0.76777545449577
6.7263284271932	0.76754968867024
6.7157808691756	0.76732488116218
6.7052663386267	0.76710104506962
6.6947846806610	0.76687819340846
6.6843357413601	0.76665633911208
6.6739193677649	0.76643549503088
6.6635354078684	0.76621567393187
6.6531837106081	0.76599688849828
6.6428641258586	0.76577915132914
6.6325765044248	0.76556247493890
6.6223206980340	0.76534687175703
6.6120965593295	0.76513235412770
6.6019039418630	0.76491893430935
6.5917427000879	0.76470662447438
6.5816126893524	0.76449543670878
6.5715137658922	0.76428538301181
6.5614457868243	0.76407647529568
6.5514086101399	0.76386872538519
6.5414020946978	0.76366214501745
6.5314261002179	0.76345674584157
6.5214804872743	0.76325253941836
6.5115651172893	0.76304953722006
6.5016798525266	0.76284775063003
6.4918245560849	0.76264719094248
6.4819990918919	0.76244786936225
6.4722033246978	0.76224979700449
6.4624371200690	0.76205298489445
6.4527003443823	0.76185744396725
6.4429928648184	0.76166318506760
6.4333145493562	0.76147021894961
6.4236652667667	0.76127855627653
6.4140448866068	0.76108820762060
6.4044532792138	0.76089918346279
6.3948903156997	0.76071149419259
6.3853558679446	0.76052515010789
6.3758498085921	0.76034016141471
6.3663720110427	0.76015653822705
6.3569223494487	0.75997429056675
6.3475006987084	0.75979342836327
6.3381069344609	0.75961396145354
6.3287409330800	0.75943589958184
6.3194025716695	0.75925925239960
6.3100917280572	0.75908402946531
6.3008082807902	0.75891024024431
6.2915521091291	0.75873789410872
6.2823230930427	0.75856700033730
6.2731211132036	0.75839756811529
6.2639460509820	0.75822960653435
6.2547977884415	0.75806312459239
6.2456762083333	0.75789813119352
6.2365811940919	0.75773463514790
6.2275126298297	0.75757264517166
6.2184704003319	0.75741216988683
6.2094543910522	0.75725321782121
6.2004644881075	0.75709579740833
6.1915005782734	0.75693991698733
6.1825625489792	0.75678558480291
6.1736502883031	0.75663280900528
6.1647636849681	0.75648159765003
6.1559026283368	0.75633195869812
6.1470670084068	0.75618390001583
6.1382567158067	0.75603742937465
6.1294716417910	0.75589255445129
6.1207116782360	0.75574928282757
6.1119767176351	0.75560762199046
6.1032666530945	0.75546757933193
6.0945813783289	0.75532916214903
6.0859207876573	0.75519237764377
6.0772847759984	0.75505723292310
6.0686732388664	0.75492373499894
6.0600860723671	0.75479189078809
6.0515231731934	0.75466170711224
6.0429844386212	0.75453319069793
6.0344697665056	0.75440634817656
6.0259790552764	0.75428118608436
6.0175122039342	0.75415771086237
6.0090691120465	0.75403592885645
6.0006496797438	0.75391584631726
5.9922538077154	0.75379746940025
5.9838813972056	0.75368080416566
5.9755323500100	0.75356585657855
5.9672065684713	0.75345263250874
5.9589039554760	0.75334113773087
5.9506244144502	0.75323137792437
5.9423678493558	0.75312335867348
5.9341341646873	0.75301708546724
5.9259232654675	0.75291256369954
5.9177350572444	0.75280979866909
5.9095694460871	0.75270879557944
5.9014263385827	0.75260955953901
5.8933056418321	0.75251209556108
5.8852072634472	0.75241640856383
5.8771311115468	0.75232250337036
5.8690770947533	0.75223038470865
5.8610451221896	0.75214005721166
5.8530351034752	0.75205152541729
5.8450469487229	0.75196479376844
5.8370805685358	0.75187986661299
5.8291358740035	0.75179674820386
5.8212127766990	0.75171544269901
5.8133111886756	0.75163595416145
5.8054310224632	0.75155828655930
5.7975721910656	0.75148244376579
5.7897346079567	0.75140842955929
5.7819181870781	0.75133624762331
5.7741228428351	0.75126590154658
5.7663484900942	0.75119739482301
5.7585950441798	0.75113073085176
5.7508624208709	0.75106591293723
5.7431505363985	0.75100294428912
5.7354593074421	0.75094182802244
5.7277886511272	0.75088256715751
5.7201384850219	0.75082516462003
5.7125087271341	0.75076962324106
5.7048992959087	0.75071594575707
5.6973101102242	0.75066413480996
5.6897410893908	0.75061419294707
5.6821921531463	0.75056612262123
5.6746632216544	0.75051992619074
5.6671542155009	0.75047560591945
5.6596650556919	0.75043316397671
5.6521956636501	0.75039260243747
5.6447459612126	0.75035392328222
5.6373158706281	0.75031712839708
5.6299053145540	0.75028221957377
5.6225142160540	0.75024919850966
5.6151424985952	0.75021806680777
5.6077900860456	0.75018882597681
5.6004569026714	0.75016147743114
5.5931428731343	0.75013602249087
5.5858479224893	0.75011246238181
5.5785719761816	0.75009079823551
5.5713149600446	0.75007103108926
5.5640768002970	0.75005316188613
5.5568574235403	0.75003719147496
5.5496567567568	0.75002312061036
5.5424747273063	0.75001094995276
5.5353112629247	0.75000068006839
5.5281662917204	0.74999231142928
5.5210397421731	0.74998584441329
5.5139315431304	0.74998127930413
5.5068416238060	0.74997861629133
5.4997699137773	0.74997785547025
5.4927163429828	0.74997899684213
5.4856808417200	0.74998204031402
5.4786633406433	0.74998698569886
5.4716637707611	0.74999383271542
5.4646820634342	0.75000258098834
5.4577181503732	0.75001323004812
5.4507719636364	0.75002577933109
5.4438434356274	0.75004022817947
5.4369324990932	0.75005657584131
5.4300390871219	0.75007482147051
5.4231631331404	0.75009496412683
5.4163045709124	0.75011700277585
5.4094633345363	0.75014093628901
5.4026393584430	0.75016676344357
5.3958325773938	0.75019448292261
5.3890429264785	0.75022409331501
5.3822703411131	0.75025559311550
5.3755147570378	0.75028898072456
5.3687761103152	0.75032425444850
5.3620543373278	0.75036141249939
5.3553493747767	0.75040045299506
5.3486611596789	0.75044137395912
5.3419896293656	0.75048417332091
5.3353347214807	0.75052884891550
5.3286963739780	0.75057539848371
5.3220745251198	0.75062381967204
5.3154691134752	0.75067411003269
5.3088800779175	0.75072626702356
5.3023073576229	0.75078028800818
5.2957508920685	0.75083617025578
5.2892106210303	0.75089391094120
5.2826864845815	0.75095350714491
5.2761784230905	0.75101495585299
5.2696863772192	0.75107825395712
5.2632102879213	0.75114339825456
5.2567500964405	0.75121038544814
5.2503057443082	0.75127921214623
5.2438771733427	0.75134987486275
5.2374643256464	0.75142237001713
5.2310671436050	0.75149669393432
5.2246855698850	0.75157284284475
5.2183195474326	0.75165081288435
5.2119690194715	0.75173060009452
5.2056339295016	0.75181220042210
5.1993142212973	0.75189560971937
5.1930098389052	0.75198082374407
5.1867207266436	0.75206783815933
5.1804468290997	0.75215664853372
5.1741880911288	0.75224725034121
5.1679444578521	0.75233963896113
5.1617158746556	0.75243380967824
5.1555022871883	0.75252975768266
5.1493036413604	0.75262747806988
5.1431198833419	0.75272696584077
5.1369509595613	0.75282821590157
5.1307968167037	0.75293122306387
5.1246574017094	0.75303598204465
5.1185326617722	0.75314248746623
5.1124225443383	0.75325073385631
5.1063269971044	0.75336071564797
5.1002459680163	0.75347242717965
5.0941794052676	0.75358586269519
5.0881272572980	0.75370101634382
5.0820894727920	0.75381788218016
5.0760660006773	0.75393645416428
5.0700567901235	0.75405672616165
5.0640617905405	0.75417869194321
5.0580809515775	0.75430234518537
5.0521142231210	0.75442767947002
5.0461615552937	0.75455468828456
5.0402228984533	0.75468336502196
5.0342982031906	0.75481370298073
5.0283874203287	0.75494569536500
5.0224905009214	0.75507933528453
5.0166073962517	0.75521461575475
5.0107380578305	0.75535152969681
5.0048824373957	0.75549006993763
4.9990404869101	0.75563022920990
4.9932121585610	0.75577200015219
4.9873974047579	0.75591537530897
4.9815961781323	0.75606034713066
4.9758084315353	0.75620690797371
4.9700341180371	0.75635505010066
4.9642731909256	0.75650476568018
4.9585256037049	0.75665604678718
4.9527913100942	0.75680888540287
4.9470702640264	0.75696327341480
4.9413624196473	0.75711920261701
4.9356677313138	0.75727666471006
4.9299861535932	0.75743565130115
4.9243176412615	0.75759615390421
4.9186621493027	0.75775816393999
4.9130196329072	0.75792167273617
4.9073900474709	0.75808667152748
4.9017733485939	0.75825315145577
4.8961694920790	0.75842110357020
4.8905784339315	0.75859051882729
4.8850001303569	0.75876138809108
4.8794345377604	0.75893370213329
4.8738816127459	0.75910745163340
4.8683413121143	0.75928262717883
4.8628135928629	0.75945921926510
4.8572984121841	0.75963721829593
4.8517957274640	0.75981661458347
4.8463054962819	0.75999739834841
4.8408276764088	0.76017955972017
4.8353622258065	0.76036308873710
