#Parameters = {thARC=1; nARC=1; thsub=1; p=1; nSub=3.25}
#"Wavelength / um"	"T (492) [Real Part]"
#---------------------------------------
14.989622900000	0.71972252249590
14.937342202292	0.71975884984990
14.885424925521	0.71979410591874
14.833867293419	0.71982830609249
14.782665581854	0.71986146567199
14.731816117936	0.71989359986797
14.681315279138	0.71992472380020
14.631159492435	0.71995485249663
14.581345233463	0.71998400089263
14.531869025691	0.72001218383017
14.482727439614	0.72003941605705
14.433917091960	0.72006571222617
14.385434644914	0.72009108689480
14.337276805356	0.72011555452387
14.289440324118	0.72013912947730
14.241921995249	0.72016182602130
14.194718655303	0.72018365832379
14.147827182633	0.72020464045374
14.101244496707	0.72022478638056
14.054967557431	0.72024410997354
14.008993364486	0.72026262500129
13.963318956684	0.72028034513118
13.917941411328	0.72029728392886
13.872857843591	0.72031345485770
13.828065405904	0.72032887127835
13.783561287356	0.72034354644827
13.739342713107	0.72035749352130
13.695406943810	0.72037072554719
13.651751275046	0.72038325547125
13.608373036768	0.72039509613394
13.565269592760	0.72040626027049
13.522438340099	0.72041676051060
13.479876708633	0.72042660937805
13.437582160466	0.72043581929041
13.395552189455	0.72044440255877
13.353784320713	0.72045237138745
13.312276110124	0.72045973787372
13.271025143869	0.72046651400759
13.230029037952	0.72047271167157
13.189285437747	0.72047834264049
13.148792017544	0.72048341858128
13.108546480105	0.72048795105281
13.068546556234	0.72049195150573
13.028790004346	0.72049543128237
12.989274610052	0.72049840161657
12.949998185745	0.72050087363359
12.910958570198	0.72050285835004
12.872153628167	0.72050436667379
12.833581250000	0.72050540940392
12.795239351259	0.72050599723066
12.757125872340	0.72050614073540
12.719238778108	0.72050585039065
12.681576057530	0.72050513656007
12.644135723323	0.72050400949846
12.606915811606	0.72050247935181
12.569914381551	0.72050055615736
12.533129515050	0.72049824984363
12.496559316382	0.72049557023056
12.460201911887	0.72049252702953
12.424055449648	0.72048912984350
12.388118099174	0.72048538816714
12.352388051092	0.72048131138695
12.316863516845	0.72047690878141
12.281542728390	0.72047218952111
12.246423937908	0.72046716266899
12.211505417515	0.72046183718046
12.176785458976	0.72045622190364
12.142262373431	0.72045032557955
12.107934491115	0.72044415684232
12.073800161095	0.72043772421946
12.039857751004	0.72043103613210
12.006105646776	0.72042410089522
11.972542252396	0.72041692671795
11.939165989646	0.72040952170385
11.905975297855	0.72040189385117
11.872968633663	0.72039405105321
11.840144470774	0.72038600109859
11.807501299724	0.72037775167160
11.775037627651	0.72036931035251
11.742751978065	0.72036068461797
11.710642890625	0.72035188184130
11.678708920919	0.72034290929290
11.646948640249	0.72033377414064
11.615360635413	0.72032448345020
11.583943508501	0.72031504418550
11.552695876686	0.72030546320910
11.521616372022	0.72029574728262
11.490703641242	0.72028590306715
11.459956345566	0.72027593712369
11.429373160503	0.72026585591360
11.398952775665	0.72025566579905
11.368693894577	0.72024537304346
11.338595234493	0.72023498381199
11.308655526217	0.72022450417201
11.278873513920	0.72021394009357
11.249247954972	0.72020329744991
11.219777619760	0.72019258201795
11.190461291527	0.72018179947879
11.161297766195	0.72017095541823
11.132285852209	0.72016005532730
11.103424370370	0.72014910460277
11.074712153676	0.72013810854769
11.046148047163	0.72012707237195
11.017730907755	0.72011600119280
10.989459604106	0.72010490003541
10.961333016453	0.72009377383346
10.933350036470	0.72008262742964
10.905509567115	0.72007146557632
10.877810522496	0.72006029293603
10.850251827723	0.72004911408211
10.822832418773	0.72003793349927
10.795551242348	0.72002675558418
10.768407255747	0.72001558464611
10.741399426729	0.72000442490747
10.714526733381	0.71999328050448
10.687788163993	0.71998215548777
10.661182716927	0.71997105382295
10.634709400497	0.71995997939132
10.608367232838	0.71994893599043
10.582155241793	0.71993792733472
10.556072464789	0.71992695705620
10.530117948718	0.71991602870505
10.504290749825	0.71990514575027
10.478589933590	0.71989431158034
10.453014574616	0.71988352950388
10.427563756522	0.71987280275026
10.402236571825	0.71986213447032
10.377032121841	0.71985152773698
10.351949516575	0.71984098554594
10.326987874612	0.71983051081634
10.302146323024	0.71982010639140
10.277423997257	0.71980977503915
10.252820041040	0.71979951945304
10.228333606278	0.71978934225268
10.203963852961	0.71977924598449
10.179709949066	0.71976923312237
10.155571070461	0.71975930606842
10.131546400811	0.71974946715359
10.107635131490	0.71973971863840
10.083836461487	0.71973006271363
10.060149597315	0.71972050150097
10.036573752929	0.71971103705378
10.013108149633	0.71970167135771
9.9897520159947	0.71969240633148
9.9665045877660	0.71968324382751
9.9433651077944	0.71967418563265
9.9203328259431	0.71966523346887
9.8974069990096	0.71965638899397
9.8745868906456	0.71964765380228
9.8518717712783	0.71963902942536
9.8292609180328	0.71963051733270
9.8067536146549	0.71962211893243
9.7843491514360	0.71961383557203
9.7620468251384	0.71960566853901
9.7398459389214	0.71959761906163
9.7177458022690	0.71958968830963
9.6957457309185	0.71958187739489
9.6738450467893	0.71957418737215
9.6520430779137	0.71956661923975
9.6303391583681	0.71955917394027
9.6087326282051	0.71955185236129
9.5872228333866	0.71954465533606
9.5658091257179	0.71953758364424
9.5444908627826	0.71953063801254
9.5232674078780	0.71952381911549
9.5021381299525	0.71951712757610
9.4811024035421	0.71951056396657
9.4601596087094	0.71950412880899
9.4393091309824	0.71949782257605
9.4185503612944	0.71949164569171
9.3978826959248	0.71948559853193
9.3773055364404	0.71947968142532
9.3568182896380	0.71947389465389
9.3364203674868	0.71946823845369
9.3161111870727	0.71946271301553
9.2958901705426	0.71945731848566
9.2757567450495	0.71945205496647
9.2557103426984	0.71944692251715
9.2357504004929	0.71944192115438
9.2158763602828	0.71943705085304
9.1960876687117	0.71943231154686
9.1763837771656	0.71942770312911
9.1567641417227	0.71942322545325
9.1372282231027	0.71941887833367
9.1177754866180	0.71941466154629
9.0984054021244	0.71941057482925
9.0791174439733	0.71940661788360
9.0599110909640	0.71940279037396
9.0407858262967	0.71939909192913
9.0217411375263	0.71939552214283
9.0027765165165	0.71939208057429
8.9838914593947	0.71938876674895
8.9650854665072	0.71938558015909
8.9463580423754	0.71938252026446
8.9277086956522	0.71937958649296
8.9091369390788	0.71937677824128
8.8906422894425	0.71937409487552
8.8722242675348	0.71937153573183
8.8538823981099	0.71936910011705
8.8356162098438	0.71936678730936
8.8174252352941	0.71936459655887
8.7993090108600	0.71936252708827
8.7812670767428	0.71936057809343
8.7632989769073	0.71935874874406
8.7454042590432	0.71935703818428
8.7275824745269	0.71935544553323
8.7098331783847	0.71935396988572
8.6921559292549	0.71935261031281
8.6745502893519	0.71935136586238
8.6570158244297	0.71935023555979
8.6395521037464	0.71934921840841
8.6221587000288	0.71934831339025
8.6048351894374	0.71934751946655
8.5875811515325	0.71934683557831
8.5703961692396	0.71934626064693
8.5532798288160	0.71934579357475
8.5362317198178	0.71934543324563
8.5192514350668	0.71934517852551
8.5023385706183	0.71934502826298
8.4854927257288	0.71934498128983
8.4687135028249	0.71934503642160
8.4520005074711	0.71934519245817
8.4353533483399	0.71934544818424
8.4187716371806	0.71934580236992
8.4022549887892	0.71934625377125
8.3858030209790	0.71934680113075
8.3694153545505	0.71934744317791
8.3530916132627	0.71934817862977
8.3368314238042	0.71934900619139
8.3206344157646	0.71934992455638
8.3045002216066	0.71935093240745
8.2884284766381	0.71935202841684
8.2724188189845	0.71935321124692
8.2564708895621	0.71935447955058
8.2405843320506	0.71935583197182
8.2247587928669	0.71935726714617
8.2089939211391	0.71935878370123
8.1932893686800	0.71936038025710
8.1776447899618	0.71936205542688
8.1620598420909	0.71936380781714
8.1465341847826	0.71936563602840
8.1310674803363	0.71936753865554
8.1156593936113	0.71936951428832
8.1003095920022	0.71937156151179
8.0850177454153	0.71937367890675
8.0697835262450	0.71937586505020
8.0546066093498	0.71937811851575
8.0394866720300	0.71938043787409
8.0244233940043	0.71938282169339
8.0094164573871	0.71938526853973
7.9944655466667	0.71938777697753
7.9795703486825	0.71939034556995
7.9647305526036	0.71939297287928
7.9499458499072	0.71939565746740
7.9352159343568	0.71939839789611
7.9205405019815	0.71940119272757
7.9059192510549	0.71940404052468
7.8913518820742	0.71940693985144
7.8768380977404	0.71940988927337
7.8623776029373	0.71941288735783
7.8479701047120	0.71941593267445
7.8336153122550	0.71941902379543
7.8193129368805	0.71942215929596
7.8050626920073	0.71942533775453
7.7908642931393	0.71942855775327
7.7767174578470	0.71943181787836
7.7626219057483	0.71943511672028
7.7485773584906	0.71943845287422
7.7345835397317	0.71944182494036
7.7206401751223	0.71944523152421
7.7067469922879	0.71944867123692
7.6929037208109	0.71945214269561
7.6791100922131	0.71945564452366
7.6653658399386	0.71945917535103
7.6516706993364	0.71946273381455
7.6380244076433	0.71946631855819
7.6244267039674	0.71946992823339
7.6108773292714	0.71947356149931
7.5973760263558	0.71947721702313
7.5839225398432	0.71948089348031
7.5705166161616	0.71948458955486
7.5571580035291	0.71948830393959
7.5438464519376	0.71949203533640
7.5305817131374	0.71949578245649
7.5173635406219	0.71949954402065
7.5041916896120	0.71950331875947
7.4910659170415	0.71950710541359
7.4779859815415	0.71951090273395
7.4649516434263	0.71951470948196
7.4519626646781	0.71951852442981
7.4390188089330	0.71952234636061
7.4261198414664	0.71952617406862
7.4132655291790	0.71953000635950
7.4004556405826	0.71953384205046
7.3876899457861	0.71953767997050
7.3749682164822	0.71954151896054
7.3622902259332	0.71954535787370
7.3496557489581	0.71954919557540
7.3370645619187	0.71955303094357
7.3245164427071	0.71955686286885
7.3120111707317	0.71956069025469
7.2995485269053	0.71956451201759
7.2871282936315	0.71956832708721
7.2747502547925	0.71957213440652
7.2624141957364	0.71957593293200
7.2501199032648	0.71957972163372
7.2378671656205	0.71958349949553
7.2256557724753	0.71958726551515
7.2134855149182	0.71959101870435
7.2013561854432	0.71959475808902
7.1892675779376	0.71959848270934
7.1772194876706	0.71960219161987
7.1652117112811	0.71960588388967
7.1532440467669	0.71960955860239
7.1413162934731	0.71961321485640
7.1294282520809	0.71961685176486
7.1175797245964	0.71962046845582
7.1057705143399	0.71962406407233
7.0940004259347	0.71962763777251
7.0822692652965	0.71963118872960
7.0705768396226	0.71963471613208
7.0589229573817	0.71963821918372
7.0473074283028	0.71964169710364
7.0357300633654	0.71964514912640
7.0241906747891	0.71964857450202
7.0126890760234	0.71965197249604
7.0012250817375	0.71965534238959
6.9897985078107	0.71965868347944
6.9784091713222	0.71966199507800
6.9670568905415	0.71966527651339
6.9557414849188	0.71966852712945
6.9444627750753	0.71967174628579
6.9332205827937	0.71967493335780
6.9220147310090	0.71967808773667
6.9108450437990	0.71968120882941
6.8997113463751	0.71968429605887
6.8886134650735	0.71968734886371
6.8775512273457	0.71969036669845
6.8665244617499	0.71969334903344
6.8555329979419	0.71969629535488
6.8445766666667	0.71969920516477
6.8336552997493	0.71970207798097
6.8227687300865	0.71970491333708
6.8119167916383	0.71970771078254
6.8010993194192	0.71971046988250
6.7903161494904	0.71971319021787
6.7795671189507	0.71971587138524
6.7688520659291	0.71971851299688
6.7581708295762	0.71972111468068
6.7475232500563	0.71972367608011
6.7369091685393	0.71972619685420
6.7263284271932	0.71972867667745
6.7157808691756	0.71973111523982
6.7052663386267	0.71973351224666
6.6947846806610	0.71973586741863
6.6843357413601	0.71973818049166
6.6739193677649	0.71974045121690
6.6635354078684	0.71974267936062
6.6531837106081	0.71974486470415
6.6428641258586	0.71974700704381
6.6325765044248	0.71974910619084
6.6223206980340	0.71975116197129
6.6120965593295	0.71975317422599
6.6019039418630	0.71975514281039
6.5917427000879	0.71975706759453
6.5816126893524	0.71975894846293
6.5715137658922	0.71976078531448
6.5614457868243	0.71976257806237
6.5514086101399	0.71976432663395
6.5414020946978	0.71976603097068
6.5314261002179	0.71976769102797
6.5214804872743	0.71976930677509
6.5115651172893	0.71977087819507
6.5016798525266	0.71977240528459
6.4918245560849	0.71977388805384
6.4819990918919	0.71977532652641
6.4722033246978	0.71977672073916
6.4624371200690	0.71977807074214
6.4527003443823	0.71977937659839
6.4429928648184	0.71978063838388
6.4333145493562	0.71978185618733
6.4236652667667	0.71978303011012
6.4140448866068	0.71978416026611
6.4044532792138	0.71978524678154
6.3948903156997	0.71978628979486
6.3853558679446	0.71978728945662
6.3758498085921	0.71978824592929
6.3663720110427	0.71978915938715
6.3569223494487	0.71979003001613
6.3475006987084	0.71979085801363
6.3381069344609	0.71979164358844
6.3287409330800	0.71979238696050
6.3194025716695	0.71979308836081
6.3100917280572	0.71979374803127
6.3008082807902	0.71979436622446
6.2915521091291	0.71979494320356
6.2823230930427	0.71979547924216
6.2731211132036	0.71979597462406
6.2639460509820	0.71979642964316
6.2547977884415	0.71979684460326
6.2456762083333	0.71979721981793
6.2365811940919	0.71979755561029
6.2275126298297	0.71979785231288
6.2184704003319	0.71979811026748
6.2094543910522	0.71979832982493
6.2004644881075	0.71979851134496
6.1915005782734	0.71979865519605
6.1825625489792	0.71979876175517
6.1736502883031	0.71979883140770
6.1647636849681	0.71979886454721
6.1559026283368	0.71979886157526
6.1470670084068	0.71979882290126
6.1382567158067	0.71979874894228
6.1294716417910	0.71979864012285
6.1207116782360	0.71979849687479
6.1119767176351	0.71979831963707
6.1032666530945	0.71979810885554
6.0945813783289	0.71979786498283
6.0859207876573	0.71979758847811
6.0772847759984	0.71979727980696
6.0686732388664	0.71979693944112
6.0600860723671	0.71979656785836
6.0515231731934	0.71979616554227
6.0429844386212	0.71979573298208
6.0344697665056	0.71979527067246
6.0259790552764	0.71979477911337
6.0175122039342	0.71979425880982
6.0090691120465	0.71979371027173
6.0006496797438	0.71979313401374
5.9922538077154	0.71979253055498
5.9838813972056	0.71979190041894
5.9755323500100	0.71979124413323
5.9672065684713	0.71979056222944
5.9589039554760	0.71978985524293
5.9506244144502	0.71978912371264
5.9423678493558	0.71978836818091
5.9341341646873	0.71978758919329
5.9259232654675	0.71978678729836
5.9177350572444	0.71978596304756
5.9095694460871	0.71978511699495
5.9014263385827	0.71978424969709
5.8933056418321	0.71978336171282
5.8852072634472	0.71978245360309
5.8771311115468	0.71978152593074
5.8690770947533	0.71978057926039
5.8610451221896	0.71977961415818
5.8530351034752	0.71977863119163
5.8450469487229	0.71977763092946
5.8370805685358	0.71977661394140
5.8291358740035	0.71977558079800
5.8212127766990	0.71977453207047
5.8133111886756	0.71977346833048
5.8054310224632	0.71977239015002
5.7975721910656	0.71977129810117
5.7897346079567	0.71977019275598
5.7819181870781	0.71976907468625
5.7741228428351	0.71976794446339
5.7663484900942	0.71976680265822
5.7585950441798	0.71976564984082
5.7508624208709	0.71976448658034
5.7431505363985	0.71976331344485
5.7354593074421	0.71976213100116
5.7277886511272	0.71976093981465
5.7201384850219	0.71975974044913
5.7125087271341	0.71975853346661
5.7048992959087	0.71975731942724
5.6973101102242	0.71975609888905
5.6897410893908	0.71975487240782
5.6821921531463	0.71975364053698
5.6746632216544	0.71975240382734
5.6671542155009	0.71975116282704
5.6596650556919	0.71974991808133
5.6521956636501	0.71974867013243
5.6447459612126	0.71974741951941
5.6373158706281	0.71974616677800
5.6299053145540	0.71974491244043
5.6225142160540	0.71974365703536
5.6151424985952	0.71974240108763
5.6077900860456	0.71974114511821
5.6004569026714	0.71973988964399
5.5931428731343	0.71973863517767
5.5858479224893	0.71973738222763
5.5785719761816	0.71973613129776
5.5713149600446	0.71973488288737
5.5640768002970	0.71973363749100
5.5568574235403	0.71973239559836
5.5496567567568	0.71973115769412
5.5424747273063	0.71972992425785
5.5353112629247	0.71972869576385
5.5281662917204	0.71972747268106
5.5210397421731	0.71972625547291
5.5139315431304	0.71972504459722
5.5068416238060	0.71972384050605
5.4997699137773	0.71972264364565
5.4927163429828	0.71972145445626
5.4856808417200	0.71972027337208
5.4786633406433	0.71971910082109
5.4716637707611	0.71971793722500
5.4646820634342	0.71971678299912
5.4577181503732	0.71971563855223
5.4507719636364	0.71971450428653
5.4438434356274	0.71971338059752
5.4369324990932	0.71971226787389
5.4300390871219	0.71971116649744
5.4231631331404	0.71971007684297
5.4163045709124	0.71970899927823
5.4094633345363	0.71970793416379
5.4026393584430	0.71970688185298
5.3958325773938	0.71970584269178
5.3890429264785	0.71970481701878
5.3822703411131	0.71970380516507
5.3755147570378	0.71970280745417
5.3687761103152	0.71970182420196
5.3620543373278	0.71970085571662
5.3553493747767	0.71969990229852
5.3486611596789	0.71969896424022
5.3419896293656	0.71969804182635
5.3353347214807	0.71969713533355
5.3286963739780	0.71969624503046
5.3220745251198	0.71969537117761
5.3154691134752	0.71969451402738
5.3088800779175	0.71969367382398
5.3023073576229	0.71969285080335
5.2957508920685	0.71969204519314
5.2892106210303	0.71969125721267
5.2826864845815	0.71969048707288
5.2761784230905	0.71968973497629
5.2696863772192	0.71968900111695
5.2632102879213	0.71968828568044
5.2567500964405	0.71968758884379
5.2503057443082	0.71968691077552
5.2438771733427	0.71968625163551
5.2374643256464	0.71968561157508
5.2310671436050	0.71968499073690
5.2246855698850	0.71968438925501
5.2183195474326	0.71968380725476
5.2119690194715	0.71968324485284
5.2056339295016	0.71968270215724
5.1993142212973	0.71968217926725
5.1930098389052	0.71968167627345
5.1867207266436	0.71968119325772
5.1804468290997	0.71968073029319
5.1741880911288	0.71968028744430
5.1679444578521	0.71967986476678
5.1617158746556	0.71967946230764
5.1555022871883	0.71967908010519
5.1493036413604	0.71967871818906
5.1431198833419	0.71967837658020
5.1369509595613	0.71967805529088
5.1307968167037	0.71967775432475
5.1246574017094	0.71967747367682
5.1185326617722	0.71967721333352
5.1124225443383	0.71967697327267
5.1063269971044	0.71967675346358
5.1002459680163	0.71967655386700
5.0941794052676	0.71967637443522
5.0881272572980	0.71967621511207
5.0820894727920	0.71967607583297
5.0760660006773	0.71967595652496
5.0700567901235	0.71967585710675
5.0640617905405	0.71967577748876
5.0580809515775	0.71967571757316
5.0521142231210	0.71967567725393
5.0461615552937	0.71967565641693
5.0402228984533	0.71967565493991
5.0342982031906	0.71967567269258
5.0283874203287	0.71967570953669
5.0224905009214	0.71967576532609
5.0166073962517	0.71967583990676
5.0107380578305	0.71967593311690
5.0048824373957	0.71967604478699
4.9990404869101	0.71967617473987
4.9932121585610	0.71967632279081
4.9873974047579	0.71967648874756
4.9815961781323	0.71967667241046
4.9758084315353	0.71967687357250
4.9700341180371	0.71967709201939
4.9642731909256	0.71967732752968
4.9585256037049	0.71967757987480
4.9527913100942	0.71967784881919
4.9470702640264	0.71967813412034
4.9413624196473	0.71967843552893
4.9356677313138	0.71967875278889
4.9299861535932	0.71967908563752
4.9243176412615	0.71967943380555
4.9186621493027	0.71967979701728
4.9130196329072	0.71968017499066
4.9073900474709	0.71968056743740
4.9017733485939	0.71968097406305
4.8961694920790	0.71968139456715
4.8905784339315	0.71968182864331
4.8850001303569	0.71968227597932
4.8794345377604	0.71968273625728
4.8738816127459	0.71968320915367
4.8683413121143	0.71968369433954
4.8628135928629	0.71968419148056
4.8572984121841	0.71968470023717
4.8517957274640	0.71968522026469
4.8463054962819	0.71968575121344
4.8408276764088	0.71968629272889
4.8353622258065	0.71968684445175
