#Parameters = {thARC=0.2; nARC=1.5; thsub=1; p=1; nSub=3.25}
#"Wavelength / um"	"T (500) [Real Part]"
#---------------------------------------
14.989622900000	0.72263028176374
14.937342202292	0.72266164029674
14.885424925521	0.72269272572067
14.833867293419	0.72272354354764
14.782665581854	0.72275409924200
14.731816117936	0.72278439822038
14.681315279138	0.72281444585177
14.631159492435	0.72284424745754
14.581345233463	0.72287380831155
14.531869025691	0.72290313364017
14.482727439614	0.72293222862238
14.433917091960	0.72296109838985
14.385434644914	0.72298974802698
14.337276805356	0.72301818257103
14.289440324118	0.72304640701216
14.241921995249	0.72307442629356
14.194718655303	0.72310224531152
14.147827182633	0.72312986891552
14.101244496707	0.72315730190836
14.054967557431	0.72318454904623
14.008993364486	0.72321161503884
13.963318956684	0.72323850454953
13.917941411328	0.72326522219537
13.872857843591	0.72329177254728
13.828065405904	0.72331816013016
13.783561287356	0.72334438942301
13.739342713107	0.72337046485905
13.695406943810	0.72339639082587
13.651751275046	0.72342217166553
13.608373036768	0.72344781167473
13.565269592760	0.72347331510493
13.522438340099	0.72349868616250
13.479876708633	0.72352392900886
13.437582160466	0.72354904776062
13.395552189455	0.72357404648977
13.353784320713	0.72359892922377
13.312276110124	0.72362369994577
13.271025143869	0.72364836259472
13.230029037952	0.72367292106557
13.189285437747	0.72369737920939
13.148792017544	0.72372174083360
13.108546480105	0.72374600970208
13.068546556234	0.72377018953536
13.028790004346	0.72379428401081
12.989274610052	0.72381829676281
12.949998185745	0.72384223138292
12.910958570198	0.72386609142006
12.872153628167	0.72388988038071
12.833581250000	0.72391360172909
12.795239351259	0.72393725888733
12.757125872340	0.72396085523569
12.719238778108	0.72398439411272
12.681576057530	0.72400787881550
12.644135723323	0.72403131259978
12.606915811606	0.72405469868021
12.569914381551	0.72407804023056
12.533129515050	0.72410134038388
12.496559316382	0.72412460223273
12.460201911887	0.72414782882937
12.424055449648	0.72417102318600
12.388118099174	0.72419418827493
12.352388051092	0.72421732702881
12.316863516845	0.72424044234084
12.281542728390	0.72426353706500
12.246423937908	0.72428661401624
12.211505417515	0.72430967597071
12.176785458976	0.72433272566598
12.142262373431	0.72435576580127
12.107934491115	0.72437879903765
12.073800161095	0.72440182799829
12.039857751004	0.72442485526866
12.006105646776	0.72444788339676
11.972542252396	0.72447091489338
11.939165989646	0.72449395223227
11.905975297855	0.72451699785044
11.872968633663	0.72454005414833
11.840144470774	0.72456312349008
11.807501299724	0.72458620820374
11.775037627651	0.72460931058154
11.742751978065	0.72463243288007
11.710642890625	0.72465557732057
11.678708920919	0.72467874608915
11.646948640249	0.72470194133700
11.615360635413	0.72472516518069
11.583943508501	0.72474841970234
11.552695876686	0.72477170694993
11.521616372022	0.72479502893748
11.490703641242	0.72481838764534
11.459956345566	0.72484178502041
11.429373160503	0.72486522297639
11.398952775665	0.72488870339403
11.368693894577	0.72491222812137
11.338595234493	0.72493579897399
11.308655526217	0.72495941773524
11.278873513920	0.72498308615652
11.249247954972	0.72500680595751
11.219777619760	0.72503057882641
11.190461291527	0.72505440642020
11.161297766195	0.72507829036491
11.132285852209	0.72510223225582
11.103424370370	0.72512623365774
11.074712153676	0.72515029610529
11.046148047163	0.72517442110310
11.017730907755	0.72519861012608
10.989459604106	0.72522286461968
10.961333016453	0.72524718600014
10.933350036470	0.72527157565473
10.905509567115	0.72529603494202
10.877810522496	0.72532056519213
10.850251827723	0.72534516770696
10.822832418773	0.72536984376047
10.795551242348	0.72539459459892
10.768407255747	0.72541942144113
10.741399426729	0.72544432547873
10.714526733381	0.72546930787640
10.687788163993	0.72549436977215
10.661182716927	0.72551951227756
10.634709400497	0.72554473647802
10.608367232838	0.72557004343299
10.582155241793	0.72559543417628
10.556072464789	0.72562090971627
10.530117948718	0.72564647103616
10.504290749825	0.72567211909424
10.478589933590	0.72569785482416
10.453014574616	0.72572367913513
10.427563756522	0.72574959291223
10.402236571825	0.72577559701659
10.377032121841	0.72580169228573
10.351949516575	0.72582787953375
10.326987874612	0.72585415955157
10.302146323024	0.72588053310723
10.277423997257	0.72590700094613
10.252820041040	0.72593356379122
10.228333606278	0.72596022234334
10.203963852961	0.72598697728138
10.179709949066	0.72601382926261
10.155571070461	0.72604077892286
10.131546400811	0.72606782687681
10.107635131490	0.72609497371820
10.083836461487	0.72612222002013
10.060149597315	0.72614956633525
10.036573752929	0.72617701319603
10.013108149633	0.72620456111500
9.9897520159947	0.72623221058501
9.9665045877660	0.72625996207945
9.9433651077944	0.72628781605249
9.9203328259431	0.72631577293935
9.8974069990096	0.72634383315652
9.8745868906456	0.72637199710200
9.8518717712783	0.72640026515554
9.8292609180328	0.72642863767889
9.8067536146549	0.72645711501603
9.7843491514360	0.72648569749341
9.7620468251384	0.72651438542016
9.7398459389214	0.72654317908839
9.7177458022690	0.72657207877336
9.6957457309185	0.72660108473374
9.6738450467893	0.72663019721184
9.6520430779137	0.72665941643387
9.6303391583681	0.72668874261010
9.6087326282051	0.72671817593518
9.5872228333866	0.72674771658830
9.5658091257179	0.72677736473346
9.5444908627826	0.72680712051967
9.5232674078780	0.72683698408119
9.5021381299525	0.72686695553776
9.4811024035421	0.72689703499482
9.4601596087094	0.72692722254372
9.4393091309824	0.72695751826199
9.4185503612944	0.72698792221348
9.3978826959248	0.72701843444866
9.3773055364404	0.72704905500481
9.3568182896380	0.72707978390622
9.3364203674868	0.72711062116443
9.3161111870727	0.72714156677845
9.2958901705426	0.72717262073495
9.2757567450495	0.72720378300850
9.2557103426984	0.72723505356177
9.2357504004929	0.72726643234575
9.2158763602828	0.72729791929994
9.1960876687117	0.72732951435259
9.1763837771656	0.72736121742090
9.1567641417227	0.72739302841119
9.1372282231027	0.72742494721918
9.1177754866180	0.72745697373012
9.0984054021244	0.72748910781902
9.0791174439733	0.72752134935089
9.0599110909640	0.72755369818089
9.0407858262967	0.72758615415454
9.0217411375263	0.72761871710793
9.0027765165165	0.72765138686794
8.9838914593947	0.72768416325238
8.9650854665072	0.72771704607023
8.9463580423754	0.72775003512181
8.9277086956522	0.72778313019900
8.9091369390788	0.72781633108540
8.8906422894425	0.72784963755652
8.8722242675348	0.72788304938000
8.8538823981099	0.72791656631577
8.8356162098438	0.72795018811625
8.8174252352941	0.72798391452650
8.7993090108600	0.72801774528447
8.7812670767428	0.72805168012112
8.7632989769073	0.72808571876061
8.7454042590432	0.72811986092051
8.7275824745269	0.72815410631196
8.7098331783847	0.72818845463983
8.6921559292549	0.72822290560292
8.6745502893519	0.72825745889411
8.6570158244297	0.72829211420055
8.6395521037464	0.72832687120384
8.6221587000288	0.72836172958016
8.6048351894374	0.72839668900046
8.5875811515325	0.72843174913066
8.5703961692396	0.72846690963175
8.5532798288160	0.72850217015999
8.5362317198178	0.72853753036707
8.5192514350668	0.72857298990029
8.5023385706183	0.72860854840265
8.4854927257288	0.72864420551310
8.4687135028249	0.72867996086663
8.4520005074711	0.72871581409443
8.4353533483399	0.72875176482409
8.4187716371806	0.72878781267969
8.4022549887892	0.72882395728201
8.3858030209790	0.72886019824862
8.3694153545505	0.72889653519407
8.3530916132627	0.72893296773001
8.3368314238042	0.72896949546537
8.3206344157646	0.72900611800646
8.3045002216066	0.72904283495712
8.2884284766381	0.72907964591890
8.2724188189845	0.72911655049114
8.2564708895621	0.72915354827115
8.2405843320506	0.72919063885432
8.2247587928669	0.72922782183428
8.2089939211391	0.72926509680299
8.1932893686800	0.72930246335093
8.1776447899618	0.72933992106716
8.1620598420909	0.72937746953952
8.1465341847826	0.72941510835469
8.1310674803363	0.72945283709836
8.1156593936113	0.72949065535535
8.1003095920022	0.72952856270969
8.0850177454153	0.72956655874479
8.0697835262450	0.72960464304354
8.0546066093498	0.72964281518842
8.0394866720300	0.72968107476163
8.0244233940043	0.72971942134517
8.0094164573871	0.72975785452103
7.9944655466667	0.72979637387120
7.9795703486825	0.72983497897785
7.9647305526036	0.72987366942342
7.9499458499072	0.72991244479072
7.9352159343568	0.72995130466304
7.9205405019815	0.72999024862426
7.9059192510549	0.73002927625894
7.8913518820742	0.73006838715243
7.8768380977404	0.73010758089095
7.8623776029373	0.73014685706172
7.8479701047120	0.73018621525305
7.8336153122550	0.73022565505439
7.8193129368805	0.73026517605648
7.8050626920073	0.73030477785142
7.7908642931393	0.73034446003275
7.7767174578470	0.73038422219555
7.7626219057483	0.73042406393654
7.7485773584906	0.73046398485411
7.7345835397317	0.73050398454850
7.7206401751223	0.73054406262179
7.7067469922879	0.73058421867802
7.6929037208109	0.73062445232329
7.6791100922131	0.73066476316581
7.6653658399386	0.73070515081596
7.6516706993364	0.73074561488644
7.6380244076433	0.73078615499224
7.6244267039674	0.73082677075081
7.6108773292714	0.73086746178205
7.5973760263558	0.73090822770846
7.5839225398432	0.73094906815512
7.5705166161616	0.73098998274984
7.5571580035291	0.73103097112318
7.5438464519376	0.73107203290850
7.5305817131374	0.73111316774207
7.5173635406219	0.73115437526309
7.5041916896120	0.73119565511379
7.4910659170415	0.73123700693943
7.4779859815415	0.73127843038842
7.4649516434263	0.73131992511232
7.4519626646781	0.73136149076596
7.4390188089330	0.73140312700741
7.4261198414664	0.73144483349811
7.4132655291790	0.73148660990286
7.4004556405826	0.73152845588992
7.3876899457861	0.73157037113100
7.3749682164822	0.73161235530137
7.3622902259332	0.73165440807985
7.3496557489581	0.73169652914888
7.3370645619187	0.73173871819457
7.3245164427071	0.73178097490672
7.3120111707317	0.73182329897886
7.2995485269053	0.73186569010831
7.2871282936315	0.73190814799619
7.2747502547925	0.73195067234748
7.2624141957364	0.73199326287104
7.2501199032648	0.73203591927963
7.2378671656205	0.73207864128998
7.2256557724753	0.73212142862279
7.2134855149182	0.73216428100276
7.2013561854432	0.73220719815862
7.1892675779376	0.73225017982318
7.1772194876706	0.73229322573333
7.1652117112811	0.73233633563005
7.1532440467669	0.73237950925848
7.1413162934731	0.73242274636790
7.1294282520809	0.73246604671178
7.1175797245964	0.73250941004777
7.1057705143399	0.73255283613774
7.0940004259347	0.73259632474779
7.0822692652965	0.73263987564826
7.0705768396226	0.73268348861377
7.0589229573817	0.73272716342319
7.0473074283028	0.73277089985969
7.0357300633654	0.73281469771074
7.0241906747891	0.73285855676810
7.0126890760234	0.73290247682787
7.0012250817375	0.73294645769046
6.9897985078107	0.73299049916062
6.9784091713222	0.73303460104742
6.9670568905415	0.73307876316430
6.9557414849188	0.73312298532901
6.9444627750753	0.73316726736368
6.9332205827937	0.73321160909477
6.9220147310090	0.73325601035309
6.9108450437990	0.73330047097381
6.8997113463751	0.73334499079644
6.8886134650735	0.73338956966483
6.8775512273457	0.73343420742716
6.8665244617499	0.73347890393598
6.8555329979419	0.73352365904814
6.8445766666667	0.73356847262482
6.8336552997493	0.73361334453151
6.8227687300865	0.73365827463803
6.8119167916383	0.73370326281847
6.8010993194192	0.73374830895121
6.7903161494904	0.73379341291893
6.7795671189507	0.73383857460854
6.7688520659291	0.73388379391123
6.7581708295762	0.73392907072240
6.7475232500563	0.73397440494168
6.7369091685393	0.73401979647291
6.7263284271932	0.73406524522410
6.7157808691756	0.73411075110747
6.7052663386267	0.73415631403934
6.6947846806610	0.73420193394019
6.6843357413601	0.73424761073462
6.6739193677649	0.73429334435130
6.6635354078684	0.73433913472299
6.6531837106081	0.73438498178647
6.6428641258586	0.73443088548258
6.6325765044248	0.73447684575613
6.6223206980340	0.73452286255591
6.6120965593295	0.73456893583467
6.6019039418630	0.73461506554908
6.5917427000879	0.73466125165969
6.5816126893524	0.73470749413095
6.5715137658922	0.73475379293111
6.5614457868243	0.73480014803226
6.5514086101399	0.73484655941027
6.5414020946978	0.73489302704474
6.5314261002179	0.73493955091900
6.5214804872743	0.73498613102007
6.5115651172893	0.73503276733864
6.5016798525266	0.73507945986898
6.4918245560849	0.73512620860898
6.4819990918919	0.73517301356009
6.4722033246978	0.73521987472726
6.4624371200690	0.73526679211892
6.4527003443823	0.73531376574697
6.4429928648184	0.73536079562670
6.4333145493562	0.73540788177679
6.4236652667667	0.73545502421924
6.4140448866068	0.73550222297937
6.4044532792138	0.73554947808574
6.3948903156997	0.73559678957014
6.3853558679446	0.73564415746754
6.3758498085921	0.73569158181604
6.3663720110427	0.73573906265686
6.3569223494487	0.73578660003426
6.3475006987084	0.73583419399553
6.3381069344609	0.73588184459093
6.3287409330800	0.73592955187366
6.3194025716695	0.73597731589979
6.3100917280572	0.73602513672828
6.3008082807902	0.73607301442084
6.2915521091291	0.73612094904199
6.2823230930427	0.73616894065892
6.2731211132036	0.73621698934154
6.2639460509820	0.73626509516233
6.2547977884415	0.73631325819640
6.2456762083333	0.73636147852138
6.2365811940919	0.73640975621737
6.2275126298297	0.73645809136694
6.2184704003319	0.73650648405504
6.2094543910522	0.73655493436898
6.2004644881075	0.73660344239837
6.1915005782734	0.73665200823507
6.1825625489792	0.73670063197314
6.1736502883031	0.73674931370884
6.1647636849681	0.73679805354049
6.1559026283368	0.73684685156851
6.1470670084068	0.73689570789532
6.1382567158067	0.73694462262532
6.1294716417910	0.73699359586482
6.1207116782360	0.73704262772199
6.1119767176351	0.73709171830684
6.1032666530945	0.73714086773114
6.0945813783289	0.73719007610838
6.0859207876573	0.73723934355373
6.0772847759984	0.73728867018399
6.0686732388664	0.73733805611751
6.0600860723671	0.73738750147418
6.0515231731934	0.73743700637537
6.0429844386212	0.73748657094386
6.0344697665056	0.73753619530382
6.0259790552764	0.73758587958071
6.0175122039342	0.73763562390132
6.0090691120465	0.73768542839361
6.0006496797438	0.73773529318674
5.9922538077154	0.73778521841100
5.9838813972056	0.73783520419773
5.9755323500100	0.73788525067933
5.9672065684713	0.73793535798914
5.9589039554760	0.73798552626144
5.9506244144502	0.73803575563138
5.9423678493558	0.73808604623494
5.9341341646873	0.73813639820887
5.9259232654675	0.73818681169064
5.9177350572444	0.73823728681841
5.9095694460871	0.73828782373095
5.9014263385827	0.73833842256761
5.8933056418321	0.73838908346828
5.8852072634472	0.73843980657331
5.8771311115468	0.73849059202349
5.8690770947533	0.73854143995999
5.8610451221896	0.73859235052430
5.8530351034752	0.73864332385821
5.8450469487229	0.73869436010373
5.8370805685358	0.73874545940307
5.8291358740035	0.73879662189856
5.8212127766990	0.73884784773263
5.8133111886756	0.73889913704775
5.8054310224632	0.73895048998640
5.7975721910656	0.73900190669099
5.7897346079567	0.73905338730384
5.7819181870781	0.73910493196711
5.7741228428351	0.73915654082280
5.7663484900942	0.73920821401264
5.7585950441798	0.73925995167809
5.7508624208709	0.73931175396028
5.7431505363985	0.73936362099997
5.7354593074421	0.73941555293749
5.7277886511272	0.73946754991270
5.7201384850219	0.73951961206499
5.7125087271341	0.73957173953314
5.7048992959087	0.73962393245538
5.6973101102242	0.73967619096928
5.6897410893908	0.73972851521173
5.6821921531463	0.73978090531889
5.6746632216544	0.73983336142616
5.6671542155009	0.73988588366812
5.6596650556919	0.73993847217851
5.6521956636501	0.73999112709017
5.6447459612126	0.74004384853501
5.6373158706281	0.74009663664397
5.6299053145540	0.74014949154695
5.6225142160540	0.74020241337285
5.6151424985952	0.74025540224941
5.6077900860456	0.74030845830330
5.6004569026714	0.74036158165998
5.5931428731343	0.74041477244372
5.5858479224893	0.74046803077753
5.5785719761816	0.74052135678317
5.5713149600446	0.74057475058104
5.5640768002970	0.74062821229022
5.5568574235403	0.74068174202838
5.5496567567568	0.74073533991177
5.5424747273063	0.74078900605518
5.5353112629247	0.74084274057191
5.5281662917204	0.74089654357373
5.5210397421731	0.74095041517085
5.5139315431304	0.74100435547189
5.5068416238060	0.74105836458383
5.4997699137773	0.74111244261201
5.4927163429828	0.74116658966008
5.4856808417200	0.74122080582996
5.4786633406433	0.74127509122185
5.4716637707611	0.74132944593413
5.4646820634342	0.74138387006340
5.4577181503732	0.74143836370443
5.4507719636364	0.74149292695012
5.4438434356274	0.74154755989147
5.4369324990932	0.74160226261758
5.4300390871219	0.74165703521559
5.4231631331404	0.74171187777069
5.4163045709124	0.74176679036607
5.4094633345363	0.74182177308290
5.4026393584430	0.74187682600031
5.3958325773938	0.74193194919536
5.3890429264785	0.74198714274304
5.3822703411131	0.74204240671622
5.3755147570378	0.74209774118563
5.3687761103152	0.74215314621988
5.3620543373278	0.74220862188537
5.3553493747767	0.74226416824634
5.3486611596789	0.74231978536480
5.3419896293656	0.74237547330055
5.3353347214807	0.74243123211114
5.3286963739780	0.74248706185185
5.3220745251198	0.74254296257568
5.3154691134752	0.74259893433334
5.3088800779175	0.74265497717324
5.3023073576229	0.74271109114145
5.2957508920685	0.74276727628171
5.2892106210303	0.74282353263541
5.2826864845815	0.74287986024156
5.2761784230905	0.74293625913682
5.2696863772192	0.74299272935545
5.2632102879213	0.74304927092929
5.2567500964405	0.74310588388782
5.2503057443082	0.74316256825806
5.2438771733427	0.74321932406462
5.2374643256464	0.74327615132969
5.2310671436050	0.74333305007298
5.2246855698850	0.74339002031179
5.2183195474326	0.74344706206095
5.2119690194715	0.74350417533283
5.2056339295016	0.74356136013734
5.1993142212973	0.74361861648190
5.1930098389052	0.74367594437150
5.1867207266436	0.74373334380861
5.1804468290997	0.74379081479325
5.1741880911288	0.74384835732296
5.1679444578521	0.74390597139279
5.1617158746556	0.74396365699531
5.1555022871883	0.74402141412062
5.1493036413604	0.74407924275634
5.1431198833419	0.74413714288761
5.1369509595613	0.74419511449710
5.1307968167037	0.74425315756501
5.1246574017094	0.74431127206906
5.1185326617722	0.74436945798452
5.1124225443383	0.74442771528421
5.1063269971044	0.74448604393849
5.1002459680163	0.74454444391526
5.0941794052676	0.74460291518001
5.0881272572980	0.74466145769579
5.0820894727920	0.74472007142321
5.0760660006773	0.74477875632049
5.0700567901235	0.74483751234345
5.0640617905405	0.74489633944548
5.0580809515775	0.74495523757764
5.0521142231210	0.74501420668858
5.0461615552937	0.74507324672461
5.0402228984533	0.74513235762969
5.0342982031906	0.74519153934545
5.0283874203287	0.74525079181121
5.0224905009214	0.74531011496396
5.0166073962517	0.74536950873843
5.0107380578305	0.74542897306707
5.0048824373957	0.74548850788008
4.9990404869101	0.74554811310542
4.9932121585610	0.74560778866882
4.9873974047579	0.74566753449382
4.9815961781323	0.74572735050178
4.9758084315353	0.74578723661188
4.9700341180371	0.74584719274119
4.9642731909256	0.74590721880462
4.9585256037049	0.74596731471502
4.9527913100942	0.74602748038312
4.9470702640264	0.74608771571763
4.9413624196473	0.74614802062521
4.9356677313138	0.74620839501053
4.9299861535932	0.74626883877624
4.9243176412615	0.74632935182308
4.9186621493027	0.74638993404981
4.9130196329072	0.74645058535331
4.9073900474709	0.74651130562858
4.9017733485939	0.74657209476876
4.8961694920790	0.74663295266515
4.8905784339315	0.74669387920728
4.8850001303569	0.74675487428289
4.8794345377604	0.74681593777799
4.8738816127459	0.74687706957687
4.8683413121143	0.74693826956216
4.8628135928629	0.74699953761483
4.8572984121841	0.74706087361422
4.8517957274640	0.74712227743811
4.8463054962819	0.74718374896270
4.8408276764088	0.74724528806268
4.8353622258065	0.74730689461128
