#Parameters = {thARC=0; nARC=2; thsub=1; p=1; nSub=3.25}
#"Wavelength / um"	"T (511) [Real Part]"
#---------------------------------------
14.989622900000	0.71972308802494
14.937342202292	0.71972897236736
14.885424925521	0.71973466217192
14.833867293419	0.71974016074870
14.782665581854	0.71974547137591
14.731816117936	0.71975059729998
14.681315279138	0.71975554173565
14.631159492435	0.71976030786610
14.581345233463	0.71976489884302
14.531869025691	0.71976931778672
14.482727439614	0.71977356778624
14.433917091960	0.71977765189947
14.385434644914	0.71978157315324
14.337276805356	0.71978533454342
14.289440324118	0.71978893903507
14.241921995249	0.71979238956252
14.194718655303	0.71979568902950
14.147827182633	0.71979884030923
14.101244496707	0.71980184624458
14.054967557431	0.71980470964816
14.008993364486	0.71980743330246
13.963318956684	0.71981001995992
13.917941411328	0.71981247234315
13.872857843591	0.71981479314495
13.828065405904	0.71981698502851
13.783561287356	0.71981905062749
13.739342713107	0.71982099254618
13.695406943810	0.71982281335963
13.651751275046	0.71982451561375
13.608373036768	0.71982610182547
13.565269592760	0.71982757448285
13.522438340099	0.71982893604526
13.479876708633	0.71983018894346
13.437582160466	0.71983133557977
13.395552189455	0.71983237832819
13.353784320713	0.71983331953456
13.312276110124	0.71983416151669
13.271025143869	0.71983490656449
13.230029037952	0.71983555694012
13.189285437747	0.71983611487814
13.148792017544	0.71983658258564
13.108546480105	0.71983696224241
13.068546556234	0.71983725600104
13.028790004346	0.71983746598712
12.989274610052	0.71983759429936
12.949998185745	0.71983764300972
12.910958570198	0.71983761416359
12.872153628167	0.71983750977995
12.833581250000	0.71983733185147
12.795239351259	0.71983708234471
12.757125872340	0.71983676320025
12.719238778108	0.71983637633284
12.681576057530	0.71983592363157
12.644135723323	0.71983540696001
12.606915811606	0.71983482815638
12.569914381551	0.71983418903368
12.533129515050	0.71983349137987
12.496559316382	0.71983273695802
12.460201911887	0.71983192750646
12.424055449648	0.71983106473895
12.388118099174	0.71983015034483
12.352388051092	0.71982918598919
12.316863516845	0.71982817331300
12.281542728390	0.71982711393332
12.246423937908	0.71982600944340
12.211505417515	0.71982486141291
12.176785458976	0.71982367138804
12.142262373431	0.71982244089167
12.107934491115	0.71982117142359
12.073800161095	0.71981986446059
12.039857751004	0.71981852145667
12.006105646776	0.71981714384317
11.972542252396	0.71981573302896
11.939165989646	0.71981429040060
11.905975297855	0.71981281732250
11.872968633663	0.71981131513706
11.840144470774	0.71980978516487
11.807501299724	0.71980822870488
11.775037627651	0.71980664703453
11.742751978065	0.71980504140994
11.710642890625	0.71980341306605
11.678708920919	0.71980176321683
11.646948640249	0.71980009305541
11.615360635413	0.71979840375424
11.583943508501	0.71979669646531
11.552695876686	0.71979497232023
11.521616372022	0.71979323243049
11.490703641242	0.71979147788754
11.459956345566	0.71978970976304
11.429373160503	0.71978792910894
11.398952775665	0.71978613695771
11.368693894577	0.71978433432250
11.338595234493	0.71978252219728
11.308655526217	0.71978070155701
11.278873513920	0.71977887335783
11.249247954972	0.71977703853720
11.219777619760	0.71977519801409
11.190461291527	0.71977335268913
11.161297766195	0.71977150344478
11.132285852209	0.71976965114550
11.103424370370	0.71976779663790
11.074712153676	0.71976594075094
11.046148047163	0.71976408429606
11.017730907755	0.71976222806736
10.989459604106	0.71976037284177
10.961333016453	0.71975851937919
10.933350036470	0.71975666842271
10.905509567115	0.71975482069871
10.877810522496	0.71975297691707
10.850251827723	0.71975113777130
10.822832418773	0.71974930393875
10.795551242348	0.71974747608072
10.768407255747	0.71974565484265
10.741399426729	0.71974384085431
10.714526733381	0.71974203472990
10.687788163993	0.71974023706827
10.661182716927	0.71973844845305
10.634709400497	0.71973666945283
10.608367232838	0.71973490062129
10.582155241793	0.71973314249743
10.556072464789	0.71973139560563
10.530117948718	0.71972966045590
10.504290749825	0.71972793754400
10.478589933590	0.71972622735160
10.453014574616	0.71972453034645
10.427563756522	0.71972284698252
10.402236571825	0.71972117770019
10.377032121841	0.71971952292637
10.351949516575	0.71971788307469
10.326987874612	0.71971625854565
10.302146323024	0.71971464972674
10.277423997257	0.71971305699265
10.252820041040	0.71971148070541
10.228333606278	0.71970992121451
10.203963852961	0.71970837885710
10.179709949066	0.71970685395812
10.155571070461	0.71970534683045
10.131546400811	0.71970385777508
10.107635131490	0.71970238708126
10.083836461487	0.71970093502663
10.060149597315	0.71969950187740
10.036573752929	0.71969808788849
10.013108149633	0.71969669330364
9.9897520159947	0.71969531835565
9.9665045877660	0.71969396326645
9.9433651077944	0.71969262824726
9.9203328259431	0.71969131349878
9.8974069990096	0.71969001921129
9.8745868906456	0.71968874556482
9.8518717712783	0.71968749272928
9.8292609180328	0.71968626086464
9.8067536146549	0.71968505012103
9.7843491514360	0.71968386063891
9.7620468251384	0.71968269254920
9.7398459389214	0.71968154597344
9.7177458022690	0.71968042102392
9.6957457309185	0.71967931780381
9.6738450467893	0.71967823640732
9.6520430779137	0.71967717691983
9.6303391583681	0.71967613941805
9.6087326282051	0.71967512397010
9.5872228333866	0.71967413063571
9.5658091257179	0.71967315946634
9.5444908627826	0.71967221050530
9.5232674078780	0.71967128378788
9.5021381299525	0.71967037934153
9.4811024035421	0.71966949718594
9.4601596087094	0.71966863733319
9.4393091309824	0.71966779978790
9.4185503612944	0.71966698454736
9.3978826959248	0.71966619160163
9.3773055364404	0.71966542093369
9.3568182896380	0.71966467251958
9.3364203674868	0.71966394632852
9.3161111870727	0.71966324232301
9.2958901705426	0.71966256045900
9.2757567450495	0.71966190068600
9.2557103426984	0.71966126294720
9.2357504004929	0.71966064717958
9.2158763602828	0.71966005331407
9.1960876687117	0.71965948127564
9.1763837771656	0.71965893098344
9.1567641417227	0.71965840235091
9.1372282231027	0.71965789528590
9.1177754866180	0.71965740969081
9.0984054021244	0.71965694546269
9.0791174439733	0.71965650249334
9.0599110909640	0.71965608066947
9.0407858262967	0.71965567987278
9.0217411375263	0.71965529998009
9.0027765165165	0.71965494086346
8.9838914593947	0.71965460239027
8.9650854665072	0.71965428442339
8.9463580423754	0.71965398682123
8.9277086956522	0.71965370943790
8.9091369390788	0.71965345212330
8.8906422894425	0.71965321472320
8.8722242675348	0.71965299707941
8.8538823981099	0.71965279902983
8.8356162098438	0.71965262040858
8.8174252352941	0.71965246104613
8.7993090108600	0.71965232076935
8.7812670767428	0.71965219940164
8.7632989769073	0.71965209676307
8.7454042590432	0.71965201267041
8.7275824745269	0.71965194693727
8.7098331783847	0.71965189937423
8.6921559292549	0.71965186978887
8.6745502893519	0.71965185798592
8.6570158244297	0.71965186376734
8.6395521037464	0.71965188693242
8.6221587000288	0.71965192727787
8.6048351894374	0.71965198459791
8.5875811515325	0.71965205868438
8.5703961692396	0.71965214932682
8.5532798288160	0.71965225631258
8.5362317198178	0.71965237942687
8.5192514350668	0.71965251845288
8.5023385706183	0.71965267317189
8.4854927257288	0.71965284336331
8.4687135028249	0.71965302880479
8.4520005074711	0.71965322927231
8.4353533483399	0.71965344454026
8.4187716371806	0.71965367438154
8.4022549887892	0.71965391856759
8.3858030209790	0.71965417686856
8.3694153545505	0.71965444905331
8.3530916132627	0.71965473488953
8.3368314238042	0.71965503414381
8.3206344157646	0.71965534658174
8.3045002216066	0.71965567196794
8.2884284766381	0.71965601006619
8.2724188189845	0.71965636063947
8.2564708895621	0.71965672345006
8.2405843320506	0.71965709825958
8.2247587928669	0.71965748482911
8.2089939211391	0.71965788291922
8.1932893686800	0.71965829229006
8.1776447899618	0.71965871270143
8.1620598420909	0.71965914391286
8.1465341847826	0.71965958568364
8.1310674803363	0.71966003777295
8.1156593936113	0.71966049993987
8.1003095920022	0.71966097194347
8.0850177454153	0.71966145354286
8.0697835262450	0.71966194449729
8.0546066093498	0.71966244456618
8.0394866720300	0.71966295350918
8.0244233940043	0.71966347108627
8.0094164573871	0.71966399705777
7.9944655466667	0.71966453118443
7.9795703486825	0.71966507322748
7.9647305526036	0.71966562294869
7.9499458499072	0.71966618011043
7.9352159343568	0.71966674447572
7.9205405019815	0.71966731580829
7.9059192510549	0.71966789387263
7.8913518820742	0.71966847843403
7.8768380977404	0.71966906925868
7.8623776029373	0.71966966611365
7.8479701047120	0.71967026876700
7.8336153122550	0.71967087698782
7.8193129368805	0.71967149054625
7.8050626920073	0.71967210921354
7.7908642931393	0.71967273276212
7.7767174578470	0.71967336096562
7.7626219057483	0.71967399359893
7.7485773584906	0.71967463043824
7.7345835397317	0.71967527126107
7.7206401751223	0.71967591584633
7.7067469922879	0.71967656397437
7.6929037208109	0.71967721542700
7.6791100922131	0.71967786998754
7.6653658399386	0.71967852744085
7.6516706993364	0.71967918757338
7.6380244076433	0.71967985017322
7.6244267039674	0.71968051503010
7.6108773292714	0.71968118193546
7.5973760263558	0.71968185068247
7.5839225398432	0.71968252106607
7.5705166161616	0.71968319288299
7.5571580035291	0.71968386593182
7.5438464519376	0.71968454001297
7.5305817131374	0.71968521492879
7.5173635406219	0.71968589048355
7.5041916896120	0.71968656648344
7.4910659170415	0.71968724273669
7.4779859815415	0.71968791905350
7.4649516434263	0.71968859524614
7.4519626646781	0.71968927112892
7.4390188089330	0.71968994651827
7.4261198414664	0.71969062123271
7.4132655291790	0.71969129509294
7.4004556405826	0.71969196792178
7.3876899457861	0.71969263954426
7.3749682164822	0.71969330978763
7.3622902259332	0.71969397848135
7.3496557489581	0.71969464545715
7.3370645619187	0.71969531054901
7.3245164427071	0.71969597359321
7.3120111707317	0.71969663442834
7.2995485269053	0.71969729289531
7.2871282936315	0.71969794883738
7.2747502547925	0.71969860210014
7.2624141957364	0.71969925253159
7.2501199032648	0.71969989998208
7.2378671656205	0.71970054430440
7.2256557724753	0.71970118535373
7.2134855149182	0.71970182298767
7.2013561854432	0.71970245706627
7.1892675779376	0.71970308745203
7.1772194876706	0.71970371400990
7.1652117112811	0.71970433660731
7.1532440467669	0.71970495511416
7.1413162934731	0.71970556940283
7.1294282520809	0.71970617934822
7.1175797245964	0.71970678482770
7.1057705143399	0.71970738572117
7.0940004259347	0.71970798191103
7.0822692652965	0.71970857328220
7.0705768396226	0.71970915972212
7.0589229573817	0.71970974112077
7.0473074283028	0.71971031737065
7.0357300633654	0.71971088836680
7.0241906747891	0.71971145400677
7.0126890760234	0.71971201419068
7.0012250817375	0.71971256882116
6.9897985078107	0.71971311780339
6.9784091713222	0.71971366104509
6.9670568905415	0.71971419845650
6.9557414849188	0.71971472995040
6.9444627750753	0.71971525544212
6.9332205827937	0.71971577484948
6.9220147310090	0.71971628809287
6.9108450437990	0.71971679509518
6.8997113463751	0.71971729578181
6.8886134650735	0.71971779008068
6.8775512273457	0.71971827792223
6.8665244617499	0.71971875923939
6.8555329979419	0.71971923396759
6.8445766666667	0.71971970204473
6.8336552997493	0.71972016341122
6.8227687300865	0.71972061800993
6.8119167916383	0.71972106578618
6.8010993194192	0.71972150668777
6.7903161494904	0.71972194066494
6.7795671189507	0.71972236767035
6.7688520659291	0.71972278765909
6.7581708295762	0.71972320058869
6.7475232500563	0.71972360641905
6.7369091685393	0.71972400511249
6.7263284271932	0.71972439663368
6.7157808691756	0.71972478094969
6.7052663386267	0.71972515802992
6.6947846806610	0.71972552784611
6.6843357413601	0.71972589037234
6.6739193677649	0.71972624558500
6.6635354078684	0.71972659346276
6.6531837106081	0.71972693398660
6.6428641258586	0.71972726713974
6.6325765044248	0.71972759290766
6.6223206980340	0.71972791127809
6.6120965593295	0.71972822224095
6.6019039418630	0.71972852578838
6.5917427000879	0.71972882191469
6.5816126893524	0.71972911061637
6.5715137658922	0.71972939189204
6.5614457868243	0.71972966574246
6.5514086101399	0.71972993217049
6.5414020946978	0.71973019118110
6.5314261002179	0.71973044278131
6.5214804872743	0.71973068698019
6.5115651172893	0.71973092378885
6.5016798525266	0.71973115322042
6.4918245560849	0.71973137528999
6.4819990918919	0.71973159001465
6.4722033246978	0.71973179741343
6.4624371200690	0.71973199750726
6.4527003443823	0.71973219031899
6.4429928648184	0.71973237587337
6.4333145493562	0.71973255419699
6.4236652667667	0.71973272531827
6.4140448866068	0.71973288926745
6.4044532792138	0.71973304607657
6.3948903156997	0.71973319577942
6.3853558679446	0.71973333841153
6.3758498085921	0.71973347401018
6.3663720110427	0.71973360261431
6.3569223494487	0.71973372426455
6.3475006987084	0.71973383900317
6.3381069344609	0.71973394687405
6.3287409330800	0.71973404792269
6.3194025716695	0.71973414219613
6.3100917280572	0.71973422974299
6.3008082807902	0.71973431061339
6.2915521091291	0.71973438485894
6.2823230930427	0.71973445253273
6.2731211132036	0.71973451368929
6.2639460509820	0.71973456838457
6.2547977884415	0.71973461667589
6.2456762083333	0.71973465862196
6.2365811940919	0.71973469428282
6.2275126298297	0.71973472371981
6.2184704003319	0.71973474699556
6.2094543910522	0.71973476417397
6.2004644881075	0.71973477532013
6.1915005782734	0.71973478050038
6.1825625489792	0.71973477978222
6.1736502883031	0.71973477323428
6.1647636849681	0.71973476092632
6.1559026283368	0.71973474292921
6.1470670084068	0.71973471931486
6.1382567158067	0.71973469015624
6.1294716417910	0.71973465552732
6.1207116782360	0.71973461550305
6.1119767176351	0.71973457015934
6.1032666530945	0.71973451957301
6.0945813783289	0.71973446382182
6.0859207876573	0.71973440298435
6.0772847759984	0.71973433714007
6.0686732388664	0.71973426636923
6.0600860723671	0.71973419075288
6.0515231731934	0.71973411037283
6.0429844386212	0.71973402531163
6.0344697665056	0.71973393565251
6.0259790552764	0.71973384147940
6.0175122039342	0.71973374287687
6.0090691120465	0.71973363993010
6.0006496797438	0.71973353272486
5.9922538077154	0.71973342134751
5.9838813972056	0.71973330588492
5.9755323500100	0.71973318642447
5.9672065684713	0.71973306305403
5.9589039554760	0.71973293586191
5.9506244144502	0.71973280493687
5.9423678493558	0.71973267036803
5.9341341646873	0.71973253224492
5.9259232654675	0.71973239065737
5.9177350572444	0.71973224569556
5.9095694460871	0.71973209744994
5.9014263385827	0.71973194601123
5.8933056418321	0.71973179147037
5.8852072634472	0.71973163391851
5.8771311115468	0.71973147344699
5.8690770947533	0.71973131014730
5.8610451221896	0.71973114411103
5.8530351034752	0.71973097542991
5.8450469487229	0.71973080419572
5.8370805685358	0.71973063050027
5.8291358740035	0.71973045443543
5.8212127766990	0.71973027609303
5.8133111886756	0.71973009556488
5.8054310224632	0.71972991294273
5.7975721910656	0.71972972831825
5.7897346079567	0.71972954178301
5.7819181870781	0.71972935342842
5.7741228428351	0.71972916334576
5.7663484900942	0.71972897162609
5.7585950441798	0.71972877836030
5.7508624208709	0.71972858363902
5.7431505363985	0.71972838755263
5.7354593074421	0.71972819019122
5.7277886511272	0.71972799164459
5.7201384850219	0.71972779200218
5.7125087271341	0.71972759135311
5.7048992959087	0.71972738978610
5.6973101102242	0.71972718738948
5.6897410893908	0.71972698425113
5.6821921531463	0.71972678045851
5.6746632216544	0.71972657609861
5.6671542155009	0.71972637125791
5.6596650556919	0.71972616602239
5.6521956636501	0.71972596047747
5.6447459612126	0.71972575470804
5.6373158706281	0.71972554879840
5.6299053145540	0.71972534283224
5.6225142160540	0.71972513689263
5.6151424985952	0.71972493106200
5.6077900860456	0.71972472542212
5.6004569026714	0.71972452005406
5.5931428731343	0.71972431503821
5.5858479224893	0.71972411045422
5.5785719761816	0.71972390638099
5.5713149600446	0.71972370289666
5.5640768002970	0.71972350007860
5.5568574235403	0.71972329800337
5.5496567567568	0.71972309674671
5.5424747273063	0.71972289638353
5.5353112629247	0.71972269698786
5.5281662917204	0.71972249863290
5.5210397421731	0.71972230139091
5.5139315431304	0.71972210533328
5.5068416238060	0.71972191053045
5.4997699137773	0.71972171705194
5.4927163429828	0.71972152496630
5.4856808417200	0.71972133434112
5.4786633406433	0.71972114524297
5.4716637707611	0.71972095773744
5.4646820634342	0.71972077188911
5.4577181503732	0.71972058776151
5.4507719636364	0.71972040541713
5.4438434356274	0.71972022491738
5.4369324990932	0.71972004632261
5.4300390871219	0.71971986969208
5.4231631331404	0.71971969508395
5.4163045709124	0.71971952255525
5.4094633345363	0.71971935216190
5.4026393584430	0.71971918395867
5.3958325773938	0.71971901799918
5.3890429264785	0.71971885433587
5.3822703411131	0.71971869302005
5.3755147570378	0.71971853410179
5.3687761103152	0.71971837763000
5.3620543373278	0.71971822365238
5.3553493747767	0.71971807221540
5.3486611596789	0.71971792336431
5.3419896293656	0.71971777714313
5.3353347214807	0.71971763359463
5.3286963739780	0.71971749276034
5.3220745251198	0.71971735468051
5.3154691134752	0.71971721939414
5.3088800779175	0.71971708693895
5.3023073576229	0.71971695735136
5.2957508920685	0.71971683066653
5.2892106210303	0.71971670691830
5.2826864845815	0.71971658613921
5.2761784230905	0.71971646836051
5.2696863772192	0.71971635361213
5.2632102879213	0.71971624192266
5.2567500964405	0.71971613331939
5.2503057443082	0.71971602782829
5.2438771733427	0.71971592547396
5.2374643256464	0.71971582627970
5.2310671436050	0.71971573026747
5.2246855698850	0.71971563745787
5.2183195474326	0.71971554787017
5.2119690194715	0.71971546152229
5.2056339295016	0.71971537843079
5.1993142212973	0.71971529861090
5.1930098389052	0.71971522207649
5.1867207266436	0.71971514884007
5.1804468290997	0.71971507891282
5.1741880911288	0.71971501230454
5.1679444578521	0.71971494902369
5.1617158746556	0.71971488907739
5.1555022871883	0.71971483247139
5.1493036413604	0.71971477921010
5.1431198833419	0.71971472929658
5.1369509595613	0.71971468273255
5.1307968167037	0.71971463951836
5.1246574017094	0.71971459965306
5.1185326617722	0.71971456313433
5.1124225443383	0.71971452995853
5.1063269971044	0.71971450012068
5.1002459680163	0.71971447361447
5.0941794052676	0.71971445043228
5.0881272572980	0.71971443056518
5.0820894727920	0.71971441400288
5.0760660006773	0.71971440073384
5.0700567901235	0.71971439074519
5.0640617905405	0.71971438402275
5.0580809515775	0.71971438055107
5.0521142231210	0.71971438031343
5.0461615552937	0.71971438329179
5.0402228984533	0.71971438946690
5.0342982031906	0.71971439881819
5.0283874203287	0.71971441132387
5.0224905009214	0.71971442696091
5.0166073962517	0.71971444570503
5.0107380578305	0.71971446753072
5.0048824373957	0.71971449241127
4.9990404869101	0.71971452031874
4.9932121585610	0.71971455122402
4.9873974047579	0.71971458509678
4.9815961781323	0.71971462190554
4.9758084315353	0.71971466161764
4.9700341180371	0.71971470419927
4.9642731909256	0.71971474961547
4.9585256037049	0.71971479783016
4.9527913100942	0.71971484880614
4.9470702640264	0.71971490250508
4.9413624196473	0.71971495888758
4.9356677313138	0.71971501791317
4.9299861535932	0.71971507954026
4.9243176412615	0.71971514372627
4.9186621493027	0.71971521042754
4.9130196329072	0.71971527959939
4.9073900474709	0.71971535119613
4.9017733485939	0.71971542517108
4.8961694920790	0.71971550147657
4.8905784339315	0.71971558006397
4.8850001303569	0.71971566088369
4.8794345377604	0.71971574388521
4.8738816127459	0.71971582901710
4.8683413121143	0.71971591622700
4.8628135928629	0.71971600546170
4.8572984121841	0.71971609666708
4.8517957274640	0.71971618978822
4.8463054962819	0.71971628476930
4.8408276764088	0.71971638155375
4.8353622258065	0.71971648008415
