#Parameters = {thARC=0.4; nARC=3; thsub=1; p=1; nSub=3.25}
#"Wavelength / um"	"T (537) [Real Part]"
#---------------------------------------
14.989622900000	0.73281823232023
14.937342202292	0.73295274040082
14.885424925521	0.73308601521662
14.833867293419	0.73321807590017
14.782665581854	0.73334894148531
14.731816117936	0.73347863090566
14.681315279138	0.73360716299312
14.631159492435	0.73373455647638
14.581345233463	0.73386082997948
14.531869025691	0.73398600202039
14.482727439614	0.73411009100967
14.433917091960	0.73423311524903
14.385434644914	0.73435509293009
14.337276805356	0.73447604213304
14.289440324118	0.73459598082537
14.241921995249	0.73471492686067
14.194718655303	0.73483289797740
14.147827182633	0.73494991179768
14.101244496707	0.73506598582621
14.054967557431	0.73518113744909
14.008993364486	0.73529538393279
13.963318956684	0.73540874242300
13.917941411328	0.73552122994368
13.872857843591	0.73563286339604
13.828065405904	0.73574365955750
13.783561287356	0.73585363508083
13.739342713107	0.73596280649317
13.695406943810	0.73607119019515
13.651751275046	0.73617880246006
13.608373036768	0.73628565943295
13.565269592760	0.73639177712988
13.522438340099	0.73649717143710
13.479876708633	0.73660185811031
13.437582160466	0.73670585277393
13.395552189455	0.73680917092040
13.353784320713	0.73691182790950
13.312276110124	0.73701383896769
13.271025143869	0.73711521918753
13.230029037952	0.73721598352702
13.189285437747	0.73731614680909
13.148792017544	0.73741572372102
13.108546480105	0.73751472881391
13.068546556234	0.73761317650223
13.028790004346	0.73771108106331
12.989274610052	0.73780845663691
12.949998185745	0.73790531722479
12.910958570198	0.73800167669032
12.872153628167	0.73809754875813
12.833581250000	0.73819294701373
12.795239351259	0.73828788490317
12.757125872340	0.73838237573281
12.719238778108	0.73847643266896
12.681576057530	0.73857006873768
12.644135723323	0.73866329682453
12.606915811606	0.73875612967435
12.569914381551	0.73884857989111
12.533129515050	0.73894065993768
12.496559316382	0.73903238213575
12.460201911887	0.73912375866569
12.424055449648	0.73921480156642
12.388118099174	0.73930552273537
12.352388051092	0.73939593392840
12.316863516845	0.73948604675979
12.281542728390	0.73957587270217
12.246423937908	0.73966542308659
12.211505417515	0.73975470910247
12.176785458976	0.73984374179773
12.142262373431	0.73993253207876
12.107934491115	0.74002109071059
12.073800161095	0.74010942831692
12.039857751004	0.74019755538028
12.006105646776	0.74028548224217
11.972542252396	0.74037321910317
11.939165989646	0.74046077602319
11.905975297855	0.74054816292159
11.872968633663	0.74063538957746
11.840144470774	0.74072246562978
11.807501299724	0.74080940057772
11.775037627651	0.74089620378086
11.742751978065	0.74098288445951
11.710642890625	0.74106945169496
11.678708920919	0.74115591442984
11.646948640249	0.74124228146841
11.615360635413	0.74132856147692
11.583943508501	0.74141476298398
11.552695876686	0.74150089438089
11.521616372022	0.74158696392208
11.490703641242	0.74167297972551
11.459956345566	0.74175894977304
11.429373160503	0.74184488191093
11.398952775665	0.74193078385023
11.368693894577	0.74201666316728
11.338595234493	0.74210252730417
11.308655526217	0.74218838356922
11.278873513920	0.74227423913752
11.249247954972	0.74236010105137
11.219777619760	0.74244597622091
11.190461291527	0.74253187142458
11.161297766195	0.74261779330968
11.132285852209	0.74270374839300
11.103424370370	0.74278974306131
11.074712153676	0.74287578357202
11.046148047163	0.74296187605373
11.017730907755	0.74304802650687
10.989459604106	0.74313424080432
10.961333016453	0.74322052469205
10.933350036470	0.74330688378972
10.905509567115	0.74339332359141
10.877810522496	0.74347984946621
10.850251827723	0.74356646665894
10.822832418773	0.74365318029084
10.795551242348	0.74373999536024
10.768407255747	0.74382691674326
10.741399426729	0.74391394919456
10.714526733381	0.74400109734802
10.687788163993	0.74408836571751
10.661182716927	0.74417575869760
10.634709400497	0.74426328056432
10.608367232838	0.74435093547592
10.582155241793	0.74443872747364
10.556072464789	0.74452666048247
10.530117948718	0.74461473831192
10.504290749825	0.74470296465686
10.478589933590	0.74479134309825
10.453014574616	0.74487987710398
10.427563756522	0.74496857002968
10.402236571825	0.74505742511952
10.377032121841	0.74514644550705
10.351949516575	0.74523563421601
10.326987874612	0.74532499416120
10.302146323024	0.74541452814927
10.277423997257	0.74550423887961
10.252820041040	0.74559412894520
10.228333606278	0.74568420083346
10.203963852961	0.74577445692709
10.179709949066	0.74586489950498
10.155571070461	0.74595553074308
10.131546400811	0.74604635271526
10.107635131490	0.74613736739419
10.083836461487	0.74622857665225
10.060149597315	0.74631998226244
10.036573752929	0.74641158589921
10.013108149633	0.74650338913943
9.9897520159947	0.74659539346328
9.9665045877660	0.74668760025512
9.9433651077944	0.74678001080446
9.9203328259431	0.74687262630683
9.8974069990096	0.74696544786474
9.8745868906456	0.74705847648857
9.8518717712783	0.74715171309751
9.8292609180328	0.74724515852048
9.8067536146549	0.74733881349708
9.7843491514360	0.74743267867852
9.7620468251384	0.74752675462852
9.7398459389214	0.74762104182432
9.7177458022690	0.74771554065755
9.6957457309185	0.74781025143520
9.6738450467893	0.74790517438060
9.6520430779137	0.74800030963431
9.6303391583681	0.74809565725509
9.6087326282051	0.74819121722086
9.5872228333866	0.74828698942965
9.5658091257179	0.74838297370055
9.5444908627826	0.74847916977464
9.5232674078780	0.74857557731597
9.5021381299525	0.74867219591253
9.4811024035421	0.74876902507716
9.4601596087094	0.74886606424854
9.4393091309824	0.74896331279213
9.4185503612944	0.74906077000116
9.3978826959248	0.74915843509753
9.3773055364404	0.74925630723283
9.3568182896380	0.74935438548925
9.3364203674868	0.74945266888055
9.3161111870727	0.74955115635302
9.2958901705426	0.74964984678647
9.2757567450495	0.74974873899511
9.2557103426984	0.74984783172857
9.2357504004929	0.74994712367283
9.2158763602828	0.75004661345119
9.1960876687117	0.75014629962517
9.1763837771656	0.75024618069555
9.1567641417227	0.75034625510324
9.1372282231027	0.75044652123027
9.1177754866180	0.75054697740071
9.0984054021244	0.75064762188168
9.0791174439733	0.75074845288419
9.0599110909640	0.75084946856418
9.0407858262967	0.75095066702341
9.0217411375263	0.75105204631042
9.0027765165165	0.75115360442144
8.9838914593947	0.75125533930136
8.9650854665072	0.75135724884463
8.9463580423754	0.75145933089622
8.9277086956522	0.75156158325253
8.9091369390788	0.75166400366231
8.8906422894425	0.75176658982759
8.8722242675348	0.75186933940463
8.8538823981099	0.75197225000477
8.8356162098438	0.75207531919541
8.8174252352941	0.75217854450088
8.7993090108600	0.75228192340336
8.7812670767428	0.75238545334380
8.7632989769073	0.75248913172280
8.7454042590432	0.75259295590152
8.7275824745269	0.75269692320258
8.7098331783847	0.75280103091092
8.6921559292549	0.75290527627474
8.6745502893519	0.75300965650634
8.6570158244297	0.75311416878302
8.6395521037464	0.75321881024795
8.6221587000288	0.75332357801105
8.6048351894374	0.75342846914985
8.5875811515325	0.75353348071036
8.5703961692396	0.75363860970793
8.5532798288160	0.75374385312811
8.5362317198178	0.75384920792749
8.5192514350668	0.75395467103455
8.5023385706183	0.75406023935052
8.4854927257288	0.75416590975019
8.4687135028249	0.75427167908278
8.4520005074711	0.75437754417272
8.4353533483399	0.75448350182054
8.4187716371806	0.75458954880361
8.4022549887892	0.75469568187704
8.3858030209790	0.75480189777441
8.3694153545505	0.75490819320864
8.3530916132627	0.75501456487273
8.3368314238042	0.75512100944061
8.3206344157646	0.75522752356789
8.3045002216066	0.75533410389268
8.2884284766381	0.75544074703631
8.2724188189845	0.75554744960417
8.2564708895621	0.75565420818644
8.2405843320506	0.75576101935885
8.2247587928669	0.75586787968344
8.2089939211391	0.75597478570935
8.1932893686800	0.75608173397348
8.1776447899618	0.75618872100133
8.1620598420909	0.75629574330765
8.1465341847826	0.75640279739722
8.1310674803363	0.75650987976554
8.1156593936113	0.75661698689956
8.1003095920022	0.75672411527839
8.0850177454153	0.75683126137402
8.0697835262450	0.75693842165197
8.0546066093498	0.75704559257203
8.0394866720300	0.75715277058891
8.0244233940043	0.75725995215294
8.0094164573871	0.75736713371074
7.9944655466667	0.75747431170589
7.9795703486825	0.75758148257955
7.9647305526036	0.75768864277117
7.9499458499072	0.75779578871912
7.9352159343568	0.75790291686128
7.9205405019815	0.75801002363576
7.9059192510549	0.75811710548145
7.8913518820742	0.75822415883868
7.8768380977404	0.75833118014984
7.8623776029373	0.75843816585993
7.8479701047120	0.75854511241724
7.8336153122550	0.75865201627389
7.8193129368805	0.75875887388643
7.8050626920073	0.75886568171640
7.7908642931393	0.75897243623096
7.7767174578470	0.75907913390338
7.7626219057483	0.75918577121366
7.7485773584906	0.75929234464903
7.7345835397317	0.75939885070454
7.7206401751223	0.75950528588358
7.7067469922879	0.75961164669839
7.6929037208109	0.75971792967061
7.6791100922131	0.75982413133179
7.6653658399386	0.75993024822390
7.6516706993364	0.76003627689980
7.6380244076433	0.76014221392378
7.6244267039674	0.76024805587204
7.6108773292714	0.76035379933313
7.5973760263558	0.76045944090848
7.5839225398432	0.76056497721280
7.5705166161616	0.76067040487460
7.5571580035291	0.76077572053661
7.5438464519376	0.76088092085622
7.5305817131374	0.76098600250591
7.5173635406219	0.76109096217373
7.5041916896120	0.76119579656364
7.4910659170415	0.76130050239600
7.4779859815415	0.76140507640791
7.4649516434263	0.76150951535367
7.4519626646781	0.76161381600512
7.4390188089330	0.76171797515207
7.4261198414664	0.76182198960262
7.4132655291790	0.76192585618361
7.4004556405826	0.76202957174088
7.3876899457861	0.76213313313972
7.3749682164822	0.76223653726516
7.3622902259332	0.76233978102232
7.3496557489581	0.76244286133676
7.3370645619187	0.76254577515477
7.3245164427071	0.76264851944374
7.3120111707317	0.76275109119241
7.2995485269053	0.76285348741121
7.2871282936315	0.76295570513254
7.2747502547925	0.76305774141108
7.2624141957364	0.76315959332403
7.2501199032648	0.76326125797142
7.2378671656205	0.76336273247635
7.2256557724753	0.76346401398527
7.2134855149182	0.76356509966820
7.2013561854432	0.76366598671900
7.1892675779376	0.76376667235561
7.1772194876706	0.76386715382025
7.1652117112811	0.76396742837965
7.1532440467669	0.76406749332529
7.1413162934731	0.76416734597357
7.1294282520809	0.76426698366603
7.1175797245964	0.76436640376954
7.1057705143399	0.76446560367649
7.0940004259347	0.76456458080493
7.0822692652965	0.76466333259880
7.0705768396226	0.76476185652805
7.0589229573817	0.76486015008882
7.0473074283028	0.76495821080355
7.0357300633654	0.76505603622119
7.0241906747891	0.76515362391725
7.0126890760234	0.76525097149402
7.0012250817375	0.76534807658060
6.9897985078107	0.76544493683307
6.9784091713222	0.76554154993461
6.9670568905415	0.76563791359553
6.9557414849188	0.76573402555343
6.9444627750753	0.76582988357326
6.9332205827937	0.76592548544741
6.9220147310090	0.76602082899576
6.9108450437990	0.76611591206576
6.8997113463751	0.76621073253250
6.8886134650735	0.76630528829875
6.8775512273457	0.76639957729500
6.8665244617499	0.76649359747952
6.8555329979419	0.76658734683836
6.8445766666667	0.76668082338543
6.8336552997493	0.76677402516244
6.8227687300865	0.76686695023901
6.8119167916383	0.76695959671258
6.8010993194192	0.76705196270850
6.7903161494904	0.76714404637996
6.7795671189507	0.76723584590799
6.7688520659291	0.76732735950147
6.7581708295762	0.76741858539709
6.7475232500563	0.76750952185931
6.7369091685393	0.76760016718033
6.7263284271932	0.76769051968006
6.7157808691756	0.76778057770607
6.7052663386267	0.76787033963349
6.6947846806610	0.76795980386504
6.6843357413601	0.76804896883088
6.6739193677649	0.76813783298857
6.6635354078684	0.76822639482303
6.6531837106081	0.76831465284638
6.6428641258586	0.76840260559792
6.6325765044248	0.76849025164401
6.6223206980340	0.76857758957796
6.6120965593295	0.76866461801996
6.6019039418630	0.76875133561693
6.5917427000879	0.76883774104243
6.5816126893524	0.76892383299655
6.5715137658922	0.76900961020574
6.5614457868243	0.76909507142273
6.5514086101399	0.76918021542637
6.5414020946978	0.76926504102149
6.5314261002179	0.76934954703877
6.5214804872743	0.76943373233458
6.5115651172893	0.76951759579080
6.5016798525266	0.76960113631472
6.4918245560849	0.76968435283883
6.4819990918919	0.76976724432065
6.4722033246978	0.76984980974259
6.4624371200690	0.76993204811175
6.4527003443823	0.77001395845975
6.4429928648184	0.77009553984252
6.4333145493562	0.77017679134015
6.4236652667667	0.77025771205665
6.4140448866068	0.77033830111980
6.4044532792138	0.77041855768091
6.3948903156997	0.77049848091464
6.3853558679446	0.77057807001875
6.3758498085921	0.77065732421395
6.3663720110427	0.77073624274364
6.3569223494487	0.77081482487367
6.3475006987084	0.77089306989218
6.3381069344609	0.77097097710932
6.3287409330800	0.77104854585702
6.3194025716695	0.77112577548879
6.3100917280572	0.77120266537946
6.3008082807902	0.77127921492492
6.2915521091291	0.77135542354192
6.2823230930427	0.77143129066780
6.2731211132036	0.77150681576022
6.2639460509820	0.77158199829694
6.2547977884415	0.77165683777555
6.2456762083333	0.77173133371322
6.2365811940919	0.77180548564641
6.2275126298297	0.77187929313066
6.2184704003319	0.77195275574028
6.2094543910522	0.77202587306807
6.2004644881075	0.77209864472512
6.1915005782734	0.77217107034044
6.1825625489792	0.77224314956078
6.1736502883031	0.77231488205028
6.1647636849681	0.77238626749023
6.1559026283368	0.77245730557878
6.1470670084068	0.77252799603064
6.1382567158067	0.77259833857682
6.1294716417910	0.77266833296434
6.1207116782360	0.77273797895593
6.1119767176351	0.77280727632974
6.1032666530945	0.77287622487905
6.0945813783289	0.77294482441200
6.0859207876573	0.77301307475126
6.0772847759984	0.77308097573376
6.0686732388664	0.77314852721038
6.0600860723671	0.77321572904568
6.0515231731934	0.77328258111754
6.0429844386212	0.77334908331695
6.0344697665056	0.77341523554763
6.0259790552764	0.77348103772575
6.0175122039342	0.77354648977968
6.0090691120465	0.77361159164960
6.0006496797438	0.77367634328727
5.9922538077154	0.77374074465570
5.9838813972056	0.77380479572883
5.9755323500100	0.77386849649127
5.9672065684713	0.77393184693794
5.9589039554760	0.77399484707381
5.9506244144502	0.77405749691357
5.9423678493558	0.77411979648135
5.9341341646873	0.77418174581038
5.9259232654675	0.77424334494274
5.9177350572444	0.77430459392898
5.9095694460871	0.77436549282789
5.9014263385827	0.77442604170616
5.8933056418321	0.77448624063808
5.8852072634472	0.77454608970523
5.8771311115468	0.77460558899622
5.8690770947533	0.77466473860632
5.8610451221896	0.77472353863721
5.8530351034752	0.77478198919669
5.8450469487229	0.77484009039834
5.8370805685358	0.77489784236123
5.8291358740035	0.77495524520966
5.8212127766990	0.77501229907283
5.8133111886756	0.77506900408454
5.8054310224632	0.77512536038294
5.7975721910656	0.77518136811018
5.7897346079567	0.77523702741216
5.7819181870781	0.77529233843825
5.7741228428351	0.77534730134094
5.7663484900942	0.77540191627564
5.7585950441798	0.77545618340033
5.7508624208709	0.77551010287529
5.7431505363985	0.77556367486284
5.7354593074421	0.77561689952706
5.7277886511272	0.77566977703348
5.7201384850219	0.77572230754883
5.7125087271341	0.77577449124078
5.7048992959087	0.77582632827763
5.6973101102242	0.77587781882808
5.6897410893908	0.77592896306093
5.6821921531463	0.77597976114484
5.6746632216544	0.77603021324806
5.6671542155009	0.77608031953817
5.6596650556919	0.77613008018182
5.6521956636501	0.77617949534447
5.6447459612126	0.77622856519015
5.6373158706281	0.77627728988120
5.6299053145540	0.77632566957804
5.6225142160540	0.77637370443889
5.6151424985952	0.77642139461958
5.6077900860456	0.77646874027326
5.6004569026714	0.77651574155020
5.5931428731343	0.77656239859753
5.5858479224893	0.77660871155904
5.5785719761816	0.77665468057492
5.5713149600446	0.77670030578157
5.5640768002970	0.77674558731136
5.5568574235403	0.77679052529239
5.5496567567568	0.77683511984833
5.5424747273063	0.77687937109818
5.5353112629247	0.77692327915603
5.5281662917204	0.77696684413093
5.5210397421731	0.77701006612661
5.5139315431304	0.77705294524134
5.5068416238060	0.77709548156771
5.4997699137773	0.77713767519246
5.4927163429828	0.77717952619624
5.4856808417200	0.77722103465351
5.4786633406433	0.77726220063229
5.4716637707611	0.77730302419401
5.4646820634342	0.77734350539335
5.4577181503732	0.77738364427806
5.4507719636364	0.77742344088877
5.4438434356274	0.77746289525890
5.4369324990932	0.77750200741442
5.4300390871219	0.77754077737374
5.4231631331404	0.77757920514758
5.4163045709124	0.77761729073878
5.4094633345363	0.77765503414220
5.4026393584430	0.77769243534453
5.3958325773938	0.77772949432424
5.3890429264785	0.77776621105137
5.3822703411131	0.77780258548745
5.3755147570378	0.77783861758536
5.3687761103152	0.77787430728923
5.3620543373278	0.77790965453433
5.3553493747767	0.77794465924693
5.3486611596789	0.77797932134424
5.3419896293656	0.77801364073428
5.3353347214807	0.77804761731581
5.3286963739780	0.77808125097820
5.3220745251198	0.77811454160139
5.3154691134752	0.77814748905579
5.3088800779175	0.77818009320218
5.3023073576229	0.77821235389167
5.2957508920685	0.77824427096562
5.2892106210303	0.77827584425558
5.2826864845815	0.77830707358320
5.2761784230905	0.77833795876023
5.2696863772192	0.77836849958841
5.2632102879213	0.77839869585946
5.2567500964405	0.77842854735505
5.2503057443082	0.77845805384672
5.2438771733427	0.77848721509588
5.2374643256464	0.77851603085375
5.2310671436050	0.77854450086139
5.2246855698850	0.77857262484962
5.2183195474326	0.77860040253905
5.2119690194715	0.77862783364003
5.2056339295016	0.77865491785270
5.1993142212973	0.77868165486692
5.1930098389052	0.77870804436233
5.1867207266436	0.77873408600831
5.1804468290997	0.77875977946405
5.1741880911288	0.77878512437851
5.1679444578521	0.77881012039048
5.1617158746556	0.77883476712857
5.1555022871883	0.77885906421127
5.1493036413604	0.77888301124699
5.1431198833419	0.77890660783405
5.1369509595613	0.77892985356080
5.1307968167037	0.77895274800559
5.1246574017094	0.77897529073688
5.1185326617722	0.77899748131325
5.1124225443383	0.77901931928350
5.1063269971044	0.77904080418672
5.1002459680163	0.77906193555230
5.0941794052676	0.77908271290008
5.0881272572980	0.77910313574038
5.0820894727920	0.77912320357409
5.0760660006773	0.77914291589279
5.0700567901235	0.77916227217878
5.0640617905405	0.77918127190525
5.0580809515775	0.77919991453631
5.0521142231210	0.77921819952716
5.0461615552937	0.77923612632412
5.0402228984533	0.77925369436484
5.0342982031906	0.77927090307832
5.0283874203287	0.77928775188512
5.0224905009214	0.77930424019739
5.0166073962517	0.77932036741910
5.0107380578305	0.77933613294610
5.0048824373957	0.77935153616628
4.9990404869101	0.77936657645973
4.9932121585610	0.77938125319884
4.9873974047579	0.77939556574850
4.9815961781323	0.77940951346623
4.9758084315353	0.77942309570233
4.9700341180371	0.77943631180005
4.9642731909256	0.77944916109575
4.9585256037049	0.77946164291908
4.9527913100942	0.77947375659314
4.9470702640264	0.77948550143465
4.9413624196473	0.77949687675414
4.9356677313138	0.77950788185615
4.9299861535932	0.77951851603937
4.9243176412615	0.77952877859688
4.9186621493027	0.77953866881631
4.9130196329072	0.77954818598004
4.9073900474709	0.77955732936542
4.9017733485939	0.77956609824497
4.8961694920790	0.77957449188655
4.8905784339315	0.77958250955362
4.8850001303569	0.77959015050541
4.8794345377604	0.77959741399719
4.8738816127459	0.77960429928043
4.8683413121143	0.77961080560306
4.8628135928629	0.77961693220967
4.8572984121841	0.77962267834177
4.8517957274640	0.77962804323800
4.8463054962819	0.77963302613436
4.8408276764088	0.77963762626445
4.8353622258065	0.77964184285974
