#Parameters = {thARC=1; nARC=1; thsub=1; p=1; nSub=3.5}
#"Wavelength / um"	"T (546) [Real Part]"
#---------------------------------------
14.989622900000	0.69135726346763
14.937342202292	0.69140731852872
14.885424925521	0.69145588767215
14.833867293419	0.69150299185357
14.782665581854	0.69154865192782
14.731816117936	0.69159288864724
14.681315279138	0.69163572265993
14.631159492435	0.69167717450807
14.581345233463	0.69171726462630
14.531869025691	0.69175601334013
14.482727439614	0.69179344086435
14.433917091960	0.69182956730148
14.385434644914	0.69186441264036
14.337276805356	0.69189799675456
14.289440324118	0.69193033940106
14.241921995249	0.69196146021881
14.194718655303	0.69199137872734
14.147827182633	0.69202011432551
14.101244496707	0.69204768629014
14.054967557431	0.69207411377480
14.008993364486	0.69209941580857
13.963318956684	0.69212361129484
13.917941411328	0.69214671901016
13.872857843591	0.69216875760313
13.828065405904	0.69218974559325
13.783561287356	0.69220970136995
13.739342713107	0.69222864319149
13.695406943810	0.69224658918396
13.651751275046	0.69226355734039
13.608373036768	0.69227956551976
13.565269592760	0.69229463144609
13.522438340099	0.69230877270762
13.479876708633	0.69232200675595
13.437582160466	0.69233435090522
13.395552189455	0.69234582233136
13.353784320713	0.69235643807133
13.312276110124	0.69236621502241
13.271025143869	0.69237516994153
13.230029037952	0.69238331944459
13.189285437747	0.69239068000586
13.148792017544	0.69239726795737
13.108546480105	0.69240309948836
13.068546556234	0.69240819064472
13.028790004346	0.69241255732852
12.989274610052	0.69241621529749
12.949998185745	0.69241918016460
12.910958570198	0.69242146739761
12.872153628167	0.69242309231869
12.833581250000	0.69242407010406
12.795239351259	0.69242441578364
12.757125872340	0.69242414424073
12.719238778108	0.69242327021173
12.681576057530	0.69242180828586
12.644135723323	0.69241977290497
12.606915811606	0.69241717836328
12.569914381551	0.69241403880722
12.533129515050	0.69241036823528
12.496559316382	0.69240618049783
12.460201911887	0.69240148929708
12.424055449648	0.69239630818694
12.388118099174	0.69239065057298
12.352388051092	0.69238452971239
12.316863516845	0.69237795871395
12.281542728390	0.69237095053808
12.246423937908	0.69236351799682
12.211505417515	0.69235567375392
12.176785458976	0.69234743032490
12.142262373431	0.69233880007716
12.107934491115	0.69232979523009
12.073800161095	0.69232042785522
12.039857751004	0.69231070987636
12.006105646776	0.69230065306984
11.972542252396	0.69229026906462
11.939165989646	0.69227956934262
11.905975297855	0.69226856523889
11.872968633663	0.69225726794190
11.840144470774	0.69224568849382
11.807501299724	0.69223383779082
11.775037627651	0.69222172658340
11.742751978065	0.69220936547672
11.710642890625	0.69219676493096
11.678708920919	0.69218393526170
11.646948640249	0.69217088664030
11.615360635413	0.69215762909433
11.583943508501	0.69214417250798
11.552695876686	0.69213052662252
11.521616372022	0.69211670103674
11.490703641242	0.69210270520746
11.459956345566	0.69208854845000
11.429373160503	0.69207423993866
11.398952775665	0.69205978870732
11.368693894577	0.69204520364991
11.338595234493	0.69203049352099
11.308655526217	0.69201566693633
11.278873513920	0.69200073237348
11.249247954972	0.69198569817236
11.219777619760	0.69197057253589
11.190461291527	0.69195536353059
11.161297766195	0.69194007908723
11.132285852209	0.69192472700151
11.103424370370	0.69190931493466
11.074712153676	0.69189385041417
11.046148047163	0.69187834083446
11.017730907755	0.69186279345756
10.989459604106	0.69184721541386
10.961333016453	0.69183161370280
10.933350036470	0.69181599519363
10.905509567115	0.69180036662612
10.877810522496	0.69178473461136
10.850251827723	0.69176910563248
10.822832418773	0.69175348604548
10.795551242348	0.69173788207996
10.768407255747	0.69172229983994
10.741399426729	0.69170674530470
10.714526733381	0.69169122432952
10.687788163993	0.69167574264657
10.661182716927	0.69166030586572
10.634709400497	0.69164491947536
10.608367232838	0.69162958884329
10.582155241793	0.69161431921753
10.556072464789	0.69159911572724
10.530117948718	0.69158398338354
10.504290749825	0.69156892708042
10.478589933590	0.69155395159563
10.453014574616	0.69153906159154
10.427563756522	0.69152426161609
10.402236571825	0.69150955610367
10.377032121841	0.69149494937602
10.351949516575	0.69148044564319
10.326987874612	0.69146604900444
10.302146323024	0.69145176344916
10.277423997257	0.69143759285783
10.252820041040	0.69142354100295
10.228333606278	0.69140961155001
10.203963852961	0.69139580805841
10.179709949066	0.69138213398244
10.155571070461	0.69136859267221
10.131546400811	0.69135518737468
10.107635131490	0.69134192123455
10.083836461487	0.69132879729531
10.060149597315	0.69131581850015
10.036573752929	0.69130298769299
10.013108149633	0.69129030761944
9.9897520159947	0.69127778092781
9.9665045877660	0.69126541017009
9.9433651077944	0.69125319780290
9.9203328259431	0.69124114618859
9.8974069990096	0.69122925759612
9.8745868906456	0.69121753420216
9.8518717712783	0.69120597809202
9.8292609180328	0.69119459126072
9.8067536146549	0.69118337561394
9.7843491514360	0.69117233296907
9.7620468251384	0.69116146505620
9.7398459389214	0.69115077351912
9.7177458022690	0.69114025991639
9.6957457309185	0.69112992572228
9.6738450467893	0.69111977232783
9.6520430779137	0.69110980104186
9.6303391583681	0.69110001309199
9.6087326282051	0.69109040962563
9.5872228333866	0.69108099171103
9.5658091257179	0.69107176033829
9.5444908627826	0.69106271642035
9.5232674078780	0.69105386079405
9.5021381299525	0.69104519422112
9.4811024035421	0.69103671738921
9.4601596087094	0.69102843091286
9.4393091309824	0.69102033533461
9.4185503612944	0.69101243112592
9.3978826959248	0.69100471868823
9.3773055364404	0.69099719835397
9.3568182896380	0.69098987038756
9.3364203674868	0.69098273498642
9.3161111870727	0.69097579228200
9.2958901705426	0.69096904234076
9.2757567450495	0.69096248516517
9.2557103426984	0.69095612069475
9.2357504004929	0.69094994880704
9.2158763602828	0.69094396931861
9.1960876687117	0.69093818198606
9.1763837771656	0.69093258650700
9.1567641417227	0.69092718252105
9.1372282231027	0.69092196961085
9.1177754866180	0.69091694730300
9.0984054021244	0.69091211506911
9.0791174439733	0.69090747232671
9.0599110909640	0.69090301844027
9.0407858262967	0.69089875272219
9.0217411375263	0.69089467443371
9.0027765165165	0.69089078278596
8.9838914593947	0.69088707694084
8.9650854665072	0.69088355601207
8.9463580423754	0.69088021906608
8.9277086956522	0.69087706512298
8.9091369390788	0.69087409315753
8.8906422894425	0.69087130210007
8.8722242675348	0.69086869083749
8.8538823981099	0.69086625821411
8.8356162098438	0.69086400303269
8.8174252352941	0.69086192405529
8.7993090108600	0.69086002000426
8.7812670767428	0.69085828956309
8.7632989769073	0.69085673137740
8.7454042590432	0.69085534405582
8.7275824745269	0.69085412617087
8.7098331783847	0.69085307625992
8.6921559292549	0.69085219282604
8.6745502893519	0.69085147433892
8.6570158244297	0.69085091923575
8.6395521037464	0.69085052592211
8.6221587000288	0.69085029277282
8.6048351894374	0.69085021813286
8.5875811515325	0.69085030031820
8.5703961692396	0.69085053761668
8.5532798288160	0.69085092828885
8.5362317198178	0.69085147056885
8.5192514350668	0.69085216266521
8.5023385706183	0.69085300276176
8.4854927257288	0.69085398901838
8.4687135028249	0.69085511957189
8.4520005074711	0.69085639253687
8.4353533483399	0.69085780600642
8.4187716371806	0.69085935805305
8.4022549887892	0.69086104672943
8.3858030209790	0.69086287006920
8.3694153545505	0.69086482608777
8.3530916132627	0.69086691278310
8.3368314238042	0.69086912813650
8.3206344157646	0.69087147011337
8.3045002216066	0.69087393666399
8.2884284766381	0.69087652572427
8.2724188189845	0.69087923521651
8.2564708895621	0.69088206305017
8.2405843320506	0.69088500712255
8.2247587928669	0.69088806531960
8.2089939211391	0.69089123551659
8.1932893686800	0.69089451557885
8.1776447899618	0.69089790336252
8.1620598420909	0.69090139671518
8.1465341847826	0.69090499347662
8.1310674803363	0.69090869147953
8.1156593936113	0.69091248855012
8.1003095920022	0.69091638250889
8.0850177454153	0.69092037117124
8.0697835262450	0.69092445234816
8.0546066093498	0.69092862384688
8.0394866720300	0.69093288347154
8.0244233940043	0.69093722902381
8.0094164573871	0.69094165830356
7.9944655466667	0.69094616910944
7.9795703486825	0.69095075923955
7.9647305526036	0.69095542649203
7.9499458499072	0.69096016866570
7.9352159343568	0.69096498356062
7.9205405019815	0.69096986897868
7.9059192510549	0.69097482272426
7.8913518820742	0.69097984260470
7.8768380977404	0.69098492643098
7.8623776029373	0.69099007201820
7.8479701047120	0.69099527718618
7.8336153122550	0.69100053975999
7.8193129368805	0.69100585757051
7.8050626920073	0.69101122845495
7.7908642931393	0.69101665025738
7.7767174578470	0.69102212082923
7.7626219057483	0.69102763802987
7.7485773584906	0.69103319972700
7.7345835397317	0.69103880379725
7.7206401751223	0.69104444812662
7.7067469922879	0.69105013061096
7.6929037208109	0.69105584915646
7.6791100922131	0.69106160168011
7.6653658399386	0.69106738611013
7.6516706993364	0.69107320038649
7.6380244076433	0.69107904246125
7.6244267039674	0.69108491029910
7.6108773292714	0.69109080187771
7.5973760263558	0.69109671518819
7.5839225398432	0.69110264823548
7.5705166161616	0.69110859903878
7.5571580035291	0.69111456563190
7.5438464519376	0.69112054606372
7.5305817131374	0.69112653839847
7.5173635406219	0.69113254071623
7.5041916896120	0.69113855111316
7.4910659170415	0.69114456770197
7.4779859815415	0.69115058861221
7.4649516434263	0.69115661199062
7.4519626646781	0.69116263600148
7.4390188089330	0.69116865882692
7.4261198414664	0.69117467866726
7.4132655291790	0.69118069374129
7.4004556405826	0.69118670228661
7.3876899457861	0.69119270255991
7.3749682164822	0.69119869283723
7.3622902259332	0.69120467141431
7.3496557489581	0.69121063660679
7.3370645619187	0.69121658675054
7.3245164427071	0.69122252020186
7.3120111707317	0.69122843533777
7.2995485269053	0.69123433055624
7.2871282936315	0.69124020427643
7.2747502547925	0.69124605493893
7.2624141957364	0.69125188100595
7.2501199032648	0.69125768096155
7.2378671656205	0.69126345331187
7.2256557724753	0.69126919658529
7.2134855149182	0.69127490933264
7.2013561854432	0.69128059012739
7.1892675779376	0.69128623756582
7.1772194876706	0.69129185026719
7.1652117112811	0.69129742687390
7.1532440467669	0.69130296605165
7.1413162934731	0.69130846648960
7.1294282520809	0.69131392690048
7.1175797245964	0.69131934602075
7.1057705143399	0.69132472261072
7.0940004259347	0.69133005545466
7.0822692652965	0.69133534336094
7.0705768396226	0.69134058516211
7.0589229573817	0.69134577971500
7.0473074283028	0.69135092590084
7.0357300633654	0.69135602262530
7.0241906747891	0.69136106881861
7.0126890760234	0.69136606343561
7.0012250817375	0.69137100545582
6.9897985078107	0.69137589388351
6.9784091713222	0.69138072774773
6.9670568905415	0.69138550610238
6.9557414849188	0.69139022802621
6.9444627750753	0.69139489262290
6.9332205827937	0.69139949902106
6.9220147310090	0.69140404637424
6.9108450437990	0.69140853386097
6.8997113463751	0.69141296068475
6.8886134650735	0.69141732607405
6.8775512273457	0.69142162928230
6.8665244617499	0.69142586958790
6.8555329979419	0.69143004629418
6.8445766666667	0.69143415872938
6.8336552997493	0.69143820624662
6.8227687300865	0.69144218822389
6.8119167916383	0.69144610406396
6.8010993194192	0.69144995319436
6.7903161494904	0.69145373506734
6.7795671189507	0.69145744915978
6.7688520659291	0.69146109497314
6.7581708295762	0.69146467203341
6.7475232500563	0.69146817989098
6.7369091685393	0.69147161812062
6.7263284271932	0.69147498632134
6.7157808691756	0.69147828411635
6.7052663386267	0.69148151115292
6.6947846806610	0.69148466710229
6.6843357413601	0.69148775165955
6.6739193677649	0.69149076454358
6.6635354078684	0.69149370549685
6.6531837106081	0.69149657428536
6.6428641258586	0.69149937069848
6.6325765044248	0.69150209454884
6.6223206980340	0.69150474567218
6.6120965593295	0.69150732392717
6.6019039418630	0.69150982919535
6.5917427000879	0.69151226138089
6.5816126893524	0.69151462041048
6.5715137658922	0.69151690623316
6.5614457868243	0.69151911882016
6.5514086101399	0.69152125816471
6.5414020946978	0.69152332428189
6.5314261002179	0.69152531720843
6.5214804872743	0.69152723700254
6.5115651172893	0.69152908374373
6.5016798525266	0.69153085753261
6.4918245560849	0.69153255849068
6.4819990918919	0.69153418676016
6.4722033246978	0.69153574250378
6.4624371200690	0.69153722590456
6.4527003443823	0.69153863716560
6.4429928648184	0.69153997650990
6.4333145493562	0.69154124418010
6.4236652667667	0.69154244043829
6.4140448866068	0.69154356556576
6.4044532792138	0.69154461986281
6.3948903156997	0.69154560364848
6.3853558679446	0.69154651726035
6.3758498085921	0.69154736105427
6.3663720110427	0.69154813540414
6.3569223494487	0.69154884070169
6.3475006987084	0.69154947735619
6.3381069344609	0.69155004579423
6.3287409330800	0.69155054645945
6.3194025716695	0.69155097981231
6.3100917280572	0.69155134632983
6.3008082807902	0.69155164650531
6.2915521091291	0.69155188084808
6.2823230930427	0.69155204988326
6.2731211132036	0.69155215415144
6.2639460509820	0.69155219420849
6.2547977884415	0.69155217062520
6.2456762083333	0.69155208398709
6.2365811940919	0.69155193489407
6.2275126298297	0.69155172396023
6.2184704003319	0.69155145181348
6.2094543910522	0.69155111909536
6.2004644881075	0.69155072646068
6.1915005782734	0.69155027457730
6.1825625489792	0.69154976412579
6.1736502883031	0.69154919579919
6.1647636849681	0.69154857030271
6.1559026283368	0.69154788835341
6.1470670084068	0.69154715067995
6.1382567158067	0.69154635802228
6.1294716417910	0.69154551113137
6.1207116782360	0.69154461076887
6.1119767176351	0.69154365770686
6.1032666530945	0.69154265272754
6.0945813783289	0.69154159662292
6.0859207876573	0.69154049019454
6.0772847759984	0.69153933425318
6.0686732388664	0.69153812961854
6.0600860723671	0.69153687711896
6.0515231731934	0.69153557759109
6.0429844386212	0.69153423187965
6.0344697665056	0.69153284083705
6.0259790552764	0.69153140532317
6.0175122039342	0.69152992620500
6.0090691120465	0.69152840435638
6.0006496797438	0.69152684065766
5.9922538077154	0.69152523599544
5.9838813972056	0.69152359126224
5.9755323500100	0.69152190735622
5.9672065684713	0.69152018518086
5.9589039554760	0.69151842564468
5.9506244144502	0.69151662966092
5.9423678493558	0.69151479814728
5.9341341646873	0.69151293202556
5.9259232654675	0.69151103222141
5.9177350572444	0.69150909966403
5.9095694460871	0.69150713528586
5.9014263385827	0.69150514002226
5.8933056418321	0.69150311481128
5.8852072634472	0.69150106059331
5.8771311115468	0.69149897831079
5.8690770947533	0.69149686890796
5.8610451221896	0.69149473333053
5.8530351034752	0.69149257252540
5.8450469487229	0.69149038744037
5.8370805685358	0.69148817902385
5.8291358740035	0.69148594822460
5.8212127766990	0.69148369599141
5.8133111886756	0.69148142327282
5.8054310224632	0.69147913101688
5.7975721910656	0.69147682017080
5.7897346079567	0.69147449168074
5.7819181870781	0.69147214649149
5.7741228428351	0.69146978554620
5.7663484900942	0.69146740978614
5.7585950441798	0.69146502015037
5.7508624208709	0.69146261757553
5.7431505363985	0.69146020299552
5.7354593074421	0.69145777734127
5.7277886511272	0.69145534154048
5.7201384850219	0.69145289651731
5.7125087271341	0.69145044319218
5.7048992959087	0.69144798248148
5.6973101102242	0.69144551529732
5.6897410893908	0.69144304254727
5.6821921531463	0.69144056513414
5.6746632216544	0.69143808395567
5.6671542155009	0.69143559990437
5.6596650556919	0.69143311386721
5.6521956636501	0.69143062672540
5.6447459612126	0.69142813935415
5.6373158706281	0.69142565262245
5.6299053145540	0.69142316739282
5.6225142160540	0.69142068452108
5.6151424985952	0.69141820485614
5.6077900860456	0.69141572923975
5.6004569026714	0.69141325850632
5.5931428731343	0.69141079348264
5.5858479224893	0.69140833498772
5.5785719761816	0.69140588383256
5.5713149600446	0.69140344081993
5.5640768002970	0.69140100674418
5.5568574235403	0.69139858239101
5.5496567567568	0.69139616853732
5.5424747273063	0.69139376595094
5.5353112629247	0.69139137539052
5.5281662917204	0.69138899760527
5.5210397421731	0.69138663333481
5.5139315431304	0.69138428330898
5.5068416238060	0.69138194824764
5.4997699137773	0.69137962886053
5.4927163429828	0.69137732584707
5.4856808417200	0.69137503989620
5.4786633406433	0.69137277168618
5.4716637707611	0.69137052188450
5.4646820634342	0.69136829114764
5.4577181503732	0.69136608012098
5.4507719636364	0.69136388943859
5.4438434356274	0.69136171972313
5.4369324990932	0.69135957158568
5.4300390871219	0.69135744562559
5.4231631331404	0.69135534243037
5.4163045709124	0.69135326257554
5.4094633345363	0.69135120662449
5.4026393584430	0.69134917512837
5.3958325773938	0.69134716862597
5.3890429264785	0.69134518764358
5.3822703411131	0.69134323269490
5.3755147570378	0.69134130428089
5.3687761103152	0.69133940288973
5.3620543373278	0.69133752899664
5.3553493747767	0.69133568306384
5.3486611596789	0.69133386554040
5.3419896293656	0.69133207686222
5.3353347214807	0.69133031745188
5.3286963739780	0.69132858771856
5.3220745251198	0.69132688805800
5.3154691134752	0.69132521885240
5.3088800779175	0.69132358047033
5.3023073576229	0.69132197326672
5.2957508920685	0.69132039758271
5.2892106210303	0.69131885374568
5.2826864845815	0.69131734206912
5.2761784230905	0.69131586285262
5.2696863772192	0.69131441638183
5.2632102879213	0.69131300292838
5.2567500964405	0.69131162274986
5.2503057443082	0.69131027608979
5.2438771733427	0.69130896317758
5.2374643256464	0.69130768422850
5.2310671436050	0.69130643944366
5.2246855698850	0.69130522901001
5.2183195474326	0.69130405310028
5.2119690194715	0.69130291187302
5.2056339295016	0.69130180547254
5.1993142212973	0.69130073402896
5.1930098389052	0.69129969765818
5.1867207266436	0.69129869646187
5.1804468290997	0.69129773052753
5.1741880911288	0.69129679992845
5.1679444578521	0.69129590472376
5.1617158746556	0.69129504495844
5.1555022871883	0.69129422066334
5.1493036413604	0.69129343185521
5.1431198833419	0.69129267853676
5.1369509595613	0.69129196069666
5.1307968167037	0.69129127830958
5.1246574017094	0.69129063133627
5.1185326617722	0.69129001972360
5.1124225443383	0.69128944340457
5.1063269971044	0.69128890229843
5.1002459680163	0.69128839631068
5.0941794052676	0.69128792533319
5.0881272572980	0.69128748924424
5.0820894727920	0.69128708790856
5.0760660006773	0.69128672117749
5.0700567901235	0.69128638888897
5.0640617905405	0.69128609086770
5.0580809515775	0.69128582692515
5.0521142231210	0.69128559685972
5.0461615552937	0.69128540045681
5.0402228984533	0.69128523748890
5.0342982031906	0.69128510771567
5.0283874203287	0.69128501088410
5.0224905009214	0.69128494672861
5.0166073962517	0.69128491497112
5.0107380578305	0.69128491532119
5.0048824373957	0.69128494747616
4.9990404869101	0.69128501112124
4.9932121585610	0.69128510592967
4.9873974047579	0.69128523156282
4.9815961781323	0.69128538767035
4.9758084315353	0.69128557389033
4.9700341180371	0.69128578984937
4.9642731909256	0.69128603516281
4.9585256037049	0.69128630943483
4.9527913100942	0.69128661225859
4.9470702640264	0.69128694321642
4.9413624196473	0.69128730187995
4.9356677313138	0.69128768781029
4.9299861535932	0.69128810055818
4.9243176412615	0.69128853966414
4.9186621493027	0.69128900465869
4.9130196329072	0.69128949506247
4.9073900474709	0.69129001038644
4.9017733485939	0.69129055013205
4.8961694920790	0.69129111379145
4.8905784339315	0.69129170084762
4.8850001303569	0.69129231077459
4.8794345377604	0.69129294303765
4.8738816127459	0.69129359709350
4.8683413121143	0.69129427239047
4.8628135928629	0.69129496836869
4.8572984121841	0.69129568446034
4.8517957274640	0.69129642008981
4.8463054962819	0.69129717467392
4.8408276764088	0.69129794762212
4.8353622258065	0.69129873833672
