#Parameters = {thARC=0.4; nARC=1.25; thsub=1; p=1; nSub=3.5}
#"Wavelength / um"	"T (549) [Real Part]"
#---------------------------------------
14.989622900000	0.69709084812654
14.937342202292	0.69715669227726
14.885424925521	0.69722191806360
14.833867293419	0.69728653641052
14.782665581854	0.69735055816945
14.731816117936	0.69741399411795
14.681315279138	0.69747685495936
14.631159492435	0.69753915132249
14.581345233463	0.69760089376130
14.531869025691	0.69766209275460
14.482727439614	0.69772275870577
14.433917091960	0.69778290194247
14.385434644914	0.69784253271642
14.337276805356	0.69790166120308
14.289440324118	0.69796029750146
14.241921995249	0.69801845163388
14.194718655303	0.69807613354576
14.147827182633	0.69813335310538
14.101244496707	0.69819012010374
14.054967557431	0.69824644425435
14.008993364486	0.69830233519305
13.963318956684	0.69835780247786
13.917941411328	0.69841285558885
13.872857843591	0.69846750392794
13.828065405904	0.69852175681888
13.783561287356	0.69857562350700
13.739342713107	0.69862911315923
13.695406943810	0.69868223486391
13.651751275046	0.69873499763077
13.608373036768	0.69878741039080
13.565269592760	0.69883948199624
13.522438340099	0.69889122122047
13.479876708633	0.69894263675802
13.437582160466	0.69899373722449
13.395552189455	0.69904453115655
13.353784320713	0.69909502701192
13.312276110124	0.69914523316937
13.271025143869	0.69919515792870
13.230029037952	0.69924480951077
13.189285437747	0.69929419605755
13.148792017544	0.69934332563209
13.108546480105	0.69939220621862
13.068546556234	0.69944084572253
13.028790004346	0.69948925197054
12.989274610052	0.69953743271064
12.949998185745	0.69958539561225
12.910958570198	0.69963314826627
12.872153628167	0.69968069818520
12.833581250000	0.69972805280320
12.795239351259	0.69977521947624
12.757125872340	0.69982220548217
12.719238778108	0.69986901802091
12.681576057530	0.69991566421453
12.644135723323	0.69996215110741
12.606915811606	0.70000848566639
12.569914381551	0.70005467478091
12.533129515050	0.70010072526321
12.496559316382	0.70014664384846
12.460201911887	0.70019243719497
12.424055449648	0.70023811188435
12.388118099174	0.70028367442172
12.352388051092	0.70032913123591
12.316863516845	0.70037448867966
12.281542728390	0.70041975302983
12.246423937908	0.70046493048762
12.211505417515	0.70051002717881
12.176785458976	0.70055504915398
12.142262373431	0.70060000238876
12.107934491115	0.70064489278406
12.073800161095	0.70068972616632
12.039857751004	0.70073450828782
12.006105646776	0.70077924482685
11.972542252396	0.70082394138806
11.939165989646	0.70086860350271
11.905975297855	0.70091323662894
11.872968633663	0.70095784615205
11.840144470774	0.70100243738485
11.807501299724	0.70104701556787
11.775037627651	0.70109158586972
11.742751978065	0.70113615338740
11.710642890625	0.70118072314659
11.678708920919	0.70122530010197
11.646948640249	0.70126988913755
11.615360635413	0.70131449506701
11.583943508501	0.70135912263401
11.552695876686	0.70140377651253
11.521616372022	0.70144846130723
11.490703641242	0.70149318155379
11.459956345566	0.70153794171922
11.429373160503	0.70158274620231
11.398952775665	0.70162759933386
11.368693894577	0.70167250537717
11.338595234493	0.70171746852832
11.308655526217	0.70176249291657
11.278873513920	0.70180758260473
11.249247954972	0.70185274158957
11.219777619760	0.70189797380214
11.190461291527	0.70194328310821
11.161297766195	0.70198867330865
11.132285852209	0.70203414813978
11.103424370370	0.70207971127382
11.074712153676	0.70212536631927
11.046148047163	0.70217111682129
11.017730907755	0.70221696626216
10.989459604106	0.70226291806161
10.961333016453	0.70230897557730
10.933350036470	0.70235514210521
10.905509567115	0.70240142088003
10.877810522496	0.70244781507564
10.850251827723	0.70249432780548
10.822832418773	0.70254096212297
10.795551242348	0.70258772102199
10.768407255747	0.70263460743727
10.741399426729	0.70268162424480
10.714526733381	0.70272877426233
10.687788163993	0.70277606024976
10.661182716927	0.70282348490956
10.634709400497	0.70287105088726
10.608367232838	0.70291876077188
10.582155241793	0.70296661709632
10.556072464789	0.70301462233789
10.530117948718	0.70306277891869
10.504290749825	0.70311108920608
10.478589933590	0.70315955551316
10.453014574616	0.70320818009917
10.427563756522	0.70325696516997
10.402236571825	0.70330591287850
10.377032121841	0.70335502532524
10.351949516575	0.70340430455863
10.326987874612	0.70345375257558
10.302146323024	0.70350337132189
10.277423997257	0.70355316269271
10.252820041040	0.70360312853304
10.228333606278	0.70365327063817
10.203963852961	0.70370359075411
10.179709949066	0.70375409057811
10.155571070461	0.70380477175910
10.131546400811	0.70385563589813
10.107635131490	0.70390668454888
10.083836461487	0.70395791921810
10.060149597315	0.70400934136609
10.036573752929	0.70406095240714
10.013108149633	0.70411275371004
9.9897520159947	0.70416474659850
9.9665045877660	0.70421693235168
9.9433651077944	0.70426931220458
9.9203328259431	0.70432188734857
9.8974069990096	0.70437465893184
9.8745868906456	0.70442762805986
9.8518717712783	0.70448079579586
9.8292609180328	0.70453416316128
9.8067536146549	0.70458773113627
9.7843491514360	0.70464150066012
9.7620468251384	0.70469547263175
9.7398459389214	0.70474964791019
9.7177458022690	0.70480402731501
9.6957457309185	0.70485861162682
9.6738450467893	0.70491340158772
9.6520430779137	0.70496839790176
9.6303391583681	0.70502360123543
9.6087326282051	0.70507901221809
9.5872228333866	0.70513463144248
9.5658091257179	0.70519045946512
9.5444908627826	0.70524649680683
9.5232674078780	0.70530274395317
9.5021381299525	0.70535920135489
9.4811024035421	0.70541586942840
9.4601596087094	0.70547274855624
9.4393091309824	0.70552983908752
9.4185503612944	0.70558714133838
9.3978826959248	0.70564465559245
9.3773055364404	0.70570238210131
9.3568182896380	0.70576032108494
9.3364203674868	0.70581847273216
9.3161111870727	0.70587683720110
9.2958901705426	0.70593541461963
9.2757567450495	0.70599420508584
9.2557103426984	0.70605320866846
9.2357504004929	0.70611242540730
9.2158763602828	0.70617185531372
9.1960876687117	0.70623149837107
9.1763837771656	0.70629135453510
9.1567641417227	0.70635142373445
9.1372282231027	0.70641170587105
9.1177754866180	0.70647220082055
9.0984054021244	0.70653290843281
9.0791174439733	0.70659382853226
9.0599110909640	0.70665496091840
9.0407858262967	0.70671630536619
9.0217411375263	0.70677786162646
9.0027765165165	0.70683962942641
8.9838914593947	0.70690160846996
8.9650854665072	0.70696379843821
8.9463580423754	0.70702619898986
8.9277086956522	0.70708880976159
8.9091369390788	0.70715163036855
8.8906422894425	0.70721466040471
8.8722242675348	0.70727789944330
8.8538823981099	0.70734134703723
8.8356162098438	0.70740500271946
8.8174252352941	0.70746886600345
8.7993090108600	0.70753293638356
8.7812670767428	0.70759721333542
8.7632989769073	0.70766169631634
8.7454042590432	0.70772638476576
8.7275824745269	0.70779127810556
8.7098331783847	0.70785637574052
8.6921559292549	0.70792167705868
8.6745502893519	0.70798718143175
8.6570158244297	0.70805288821546
8.6395521037464	0.70811879674999
8.6221587000288	0.70818490636032
8.6048351894374	0.70825121635661
8.5875811515325	0.70831772603460
8.5703961692396	0.70838443467596
8.5532798288160	0.70845134154867
8.5362317198178	0.70851844590740
8.5192514350668	0.70858574699385
8.5023385706183	0.70865324403715
8.4854927257288	0.70872093625419
8.4687135028249	0.70878882284998
8.4520005074711	0.70885690301806
8.4353533483399	0.70892517594076
8.4187716371806	0.70899364078963
8.4022549887892	0.70906229672575
8.3858030209790	0.70913114290011
8.3694153545505	0.70920017845390
8.3530916132627	0.70926940251889
8.3368314238042	0.70933881421775
8.3206344157646	0.70940841266440
8.3045002216066	0.70947819696434
8.2884284766381	0.70954816621496
8.2724188189845	0.70961831950587
8.2564708895621	0.70968865591925
8.2405843320506	0.70975917453013
8.2247587928669	0.70982987440676
8.2089939211391	0.70990075461087
8.1932893686800	0.70997181419802
8.1776447899618	0.71004305221788
8.1620598420909	0.71011446771456
8.1465341847826	0.71018605972691
8.1310674803363	0.71025782728880
8.1156593936113	0.71032976942946
8.1003095920022	0.71040188517370
8.0850177454153	0.71047417354229
8.0697835262450	0.71054663355218
8.0546066093498	0.71061926421683
8.0394866720300	0.71069206454645
8.0244233940043	0.71076503354833
8.0094164573871	0.71083817022706
7.9944655466667	0.71091147358485
7.9795703486825	0.71098494262177
7.9647305526036	0.71105857633604
7.9499458499072	0.71113237372428
7.9352159343568	0.71120633378178
7.9205405019815	0.71128045550272
7.9059192510549	0.71135473788050
7.8913518820742	0.71142917990793
7.8768380977404	0.71150378057748
7.8623776029373	0.71157853888156
7.8479701047120	0.71165345381275
7.8336153122550	0.71172852436402
7.8193129368805	0.71180374952899
7.8050626920073	0.71187912830215
7.7908642931393	0.71195465967908
7.7767174578470	0.71203034265672
7.7626219057483	0.71210617623353
7.7485773584906	0.71218215940977
7.7345835397317	0.71225829118768
7.7206401751223	0.71233457057170
7.7067469922879	0.71241099656871
7.6929037208109	0.71248756818818
7.6791100922131	0.71256428444245
7.6653658399386	0.71264114434686
7.6516706993364	0.71271814691999
7.6380244076433	0.71279529118385
7.6244267039674	0.71287257616406
7.6108773292714	0.71295000089007
7.5973760263558	0.71302756439528
7.5839225398432	0.71310526571732
7.5705166161616	0.71318310389812
7.5571580035291	0.71326107798419
7.5438464519376	0.71333918702672
7.5305817131374	0.71341743008178
7.5173635406219	0.71349580621049
7.5041916896120	0.71357431447918
7.4910659170415	0.71365295395952
7.4779859815415	0.71373172372876
7.4649516434263	0.71381062286978
7.4519626646781	0.71388965047132
7.4390188089330	0.71396880562810
7.4261198414664	0.71404808744097
7.4132655291790	0.71412749501702
7.4004556405826	0.71420702746980
7.3876899457861	0.71428668391936
7.3749682164822	0.71436646349245
7.3622902259332	0.71444636532263
7.3496557489581	0.71452638855039
7.3370645619187	0.71460653232328
7.3245164427071	0.71468679579604
7.3120111707317	0.71476717813068
7.2995485269053	0.71484767849667
7.2871282936315	0.71492829607096
7.2747502547925	0.71500903003817
7.2624141957364	0.71508987959063
7.2501199032648	0.71517084392855
7.2378671656205	0.71525192226005
7.2256557724753	0.71533311380131
7.2134855149182	0.71541441777664
7.2013561854432	0.71549583341857
7.1892675779376	0.71557735996795
7.1772194876706	0.71565899667403
7.1652117112811	0.71574074279455
7.1532440467669	0.71582259759579
7.1413162934731	0.71590456035269
7.1294282520809	0.71598663034889
7.1175797245964	0.71606880687682
7.1057705143399	0.71615108923775
7.0940004259347	0.71623347674188
7.0822692652965	0.71631596870838
7.0705768396226	0.71639856446545
7.0589229573817	0.71648126335041
7.0473074283028	0.71656406470971
7.0357300633654	0.71664696789901
7.0241906747891	0.71672997228320
7.0126890760234	0.71681307723650
7.0012250817375	0.71689628214243
6.9897985078107	0.71697958639392
6.9784091713222	0.71706298939330
6.9670568905415	0.71714649055236
6.9557414849188	0.71723008929236
6.9444627750753	0.71731378504409
6.9332205827937	0.71739757724788
6.9220147310090	0.71748146535361
6.9108450437990	0.71756544882078
6.8997113463751	0.71764952711846
6.8886134650735	0.71773369972536
6.8775512273457	0.71781796612985
6.8665244617499	0.71790232582992
6.8555329979419	0.71798677833325
6.8445766666667	0.71807132315715
6.8336552997493	0.71815595982864
6.8227687300865	0.71824068788440
6.8119167916383	0.71832550687079
6.8010993194192	0.71841041634382
6.7903161494904	0.71849541586920
6.7795671189507	0.71858050502228
6.7688520659291	0.71866568338806
6.7581708295762	0.71875095056118
6.7475232500563	0.71883630614593
6.7369091685393	0.71892174975616
6.7263284271932	0.71900728101534
6.7157808691756	0.71909289955652
6.7052663386267	0.71917860502225
6.6947846806610	0.71926439706465
6.6843357413601	0.71935027534531
6.6739193677649	0.71943623953528
6.6635354078684	0.71952228931504
6.6531837106081	0.71960842437447
6.6428641258586	0.71969464441284
6.6325765044248	0.71978094913869
6.6223206980340	0.71986733826990
6.6120965593295	0.71995381153355
6.6019039418630	0.72004036866595
6.5917427000879	0.72012700941254
6.5816126893524	0.72021373352788
6.5715137658922	0.72030054077559
6.5614457868243	0.72038743092827
6.5514086101399	0.72047440376751
6.5414020946978	0.72056145908376
6.5314261002179	0.72064859667633
6.5214804872743	0.72073581635332
6.5115651172893	0.72082311793152
6.5016798525266	0.72091050123641
6.4918245560849	0.72099796610204
6.4819990918919	0.72108551237102
6.4722033246978	0.72117313989440
6.4624371200690	0.72126084853162
6.4527003443823	0.72134863815047
6.4429928648184	0.72143650862696
6.4333145493562	0.72152445984531
6.4236652667667	0.72161249169782
6.4140448866068	0.72170060408482
6.4044532792138	0.72178879691461
6.3948903156997	0.72187707010334
6.3853558679446	0.72196542357496
6.3758498085921	0.72205385726111
6.3663720110427	0.72214237110108
6.3569223494487	0.72223096504168
6.3475006987084	0.72231963903718
6.3381069344609	0.72240839304922
6.3287409330800	0.72249722704671
6.3194025716695	0.72258614100575
6.3100917280572	0.72267513490954
6.3008082807902	0.72276420874828
6.2915521091291	0.72285336251907
6.2823230930427	0.72294259622586
6.2731211132036	0.72303190987928
6.2639460509820	0.72312130349661
6.2547977884415	0.72321077710165
6.2456762083333	0.72330033072462
6.2365811940919	0.72338996440209
6.2275126298297	0.72347967817682
6.2184704003319	0.72356947209773
6.2094543910522	0.72365934621975
6.2004644881075	0.72374930060373
6.1915005782734	0.72383933531633
6.1825625489792	0.72392945042994
6.1736502883031	0.72401964602253
6.1647636849681	0.72410992217758
6.1559026283368	0.72420027898397
6.1470670084068	0.72429071653584
6.1382567158067	0.72438123493253
6.1294716417910	0.72447183427843
6.1207116782360	0.72456251468288
6.1119767176351	0.72465327626007
6.1032666530945	0.72474411912893
6.0945813783289	0.72483504341301
6.0859207876573	0.72492604924034
6.0772847759984	0.72501713674339
6.0686732388664	0.72510830605888
6.0600860723671	0.72519955732771
6.0515231731934	0.72529089069484
6.0429844386212	0.72538230630916
6.0344697665056	0.72547380432338
6.0259790552764	0.72556538489395
6.0175122039342	0.72565704818088
6.0090691120465	0.72574879434768
6.0006496797438	0.72584062356120
5.9922538077154	0.72593253599157
5.9838813972056	0.72602453181201
5.9755323500100	0.72611661119879
5.9672065684713	0.72620877433105
5.9589039554760	0.72630102139072
5.9506244144502	0.72639335256239
5.9423678493558	0.72648576803319
5.9341341646873	0.72657826799269
5.9259232654675	0.72667085263275
5.9177350572444	0.72676352214744
5.9095694460871	0.72685627673290
5.9014263385827	0.72694911658723
5.8933056418321	0.72704204191037
5.8852072634472	0.72713505290398
5.8771311115468	0.72722814977133
5.8690770947533	0.72732133271718
5.8610451221896	0.72741460194767
5.8530351034752	0.72750795767020
5.8450469487229	0.72760140009329
5.8370805685358	0.72769492942651
5.8291358740035	0.72778854588033
5.8212127766990	0.72788224966602
5.8133111886756	0.72797604099551
5.8054310224632	0.72806992008132
5.7975721910656	0.72816388713641
5.7897346079567	0.72825794237407
5.7819181870781	0.72835208600784
5.7741228428351	0.72844631825134
5.7663484900942	0.72854063931819
5.7585950441798	0.72863504942192
5.7508624208709	0.72872954877582
5.7431505363985	0.72882413759283
5.7354593074421	0.72891881608547
5.7277886511272	0.72901358446567
5.7201384850219	0.72910844294472
5.7125087271341	0.72920339173314
5.7048992959087	0.72929843104053
5.6973101102242	0.72939356107553
5.6897410893908	0.72948878204568
5.6821921531463	0.72958409415731
5.6746632216544	0.72967949761544
5.6671542155009	0.72977499262367
5.6596650556919	0.72987057938411
5.6521956636501	0.72996625809722
5.6447459612126	0.73006202896175
5.6373158706281	0.73015789217464
5.6299053145540	0.73025384793087
5.6225142160540	0.73034989642344
5.6151424985952	0.73044603784319
5.6077900860456	0.73054227237878
5.6004569026714	0.73063860021650
5.5931428731343	0.73073502154028
5.5858479224893	0.73083153653151
5.5785719761816	0.73092814536898
5.5713149600446	0.73102484822881
5.5640768002970	0.73112164528430
5.5568574235403	0.73121853670589
5.5496567567568	0.73131552266106
5.5424747273063	0.73141260331421
5.5353112629247	0.73150977882662
5.5281662917204	0.73160704935632
5.5210397421731	0.73170441505804
5.5139315431304	0.73180187608309
5.5068416238060	0.73189943257931
5.4997699137773	0.73199708469098
5.4927163429828	0.73209483255871
5.4856808417200	0.73219267631941
5.4786633406433	0.73229061610617
5.4716637707611	0.73238865204820
5.4646820634342	0.73248678427075
5.4577181503732	0.73258501289504
5.4507719636364	0.73268333803819
5.4438434356274	0.73278175981312
5.4369324990932	0.73288027832853
5.4300390871219	0.73297889368879
5.4231631331404	0.73307760599386
5.4163045709124	0.73317641533928
5.4094633345363	0.73327532181606
5.4026393584430	0.73337432551062
5.3958325773938	0.73347342650473
5.3890429264785	0.73357262487546
5.3822703411131	0.73367192069513
5.3755147570378	0.73377131403119
5.3687761103152	0.73387080494625
5.3620543373278	0.73397039349796
5.3553493747767	0.73407007973898
5.3486611596789	0.73416986371692
5.3419896293656	0.73426974547430
5.3353347214807	0.73436972504849
5.3286963739780	0.73446980247167
5.3220745251198	0.73456997777076
5.3154691134752	0.73467025096740
5.3088800779175	0.73477062207792
5.3023073576229	0.73487109111324
5.2957508920685	0.73497165807889
5.2892106210303	0.73507232297493
5.2826864845815	0.73517308579595
5.2761784230905	0.73527394653099
5.2696863772192	0.73537490516353
5.2632102879213	0.73547596167147
5.2567500964405	0.73557711602706
5.2503057443082	0.73567836819690
5.2438771733427	0.73577971814192
5.2374643256464	0.73588116581732
5.2310671436050	0.73598271117255
5.2246855698850	0.73608435415134
5.2183195474326	0.73618609469159
5.2119690194715	0.73628793272542
5.2056339295016	0.73638986817913
5.1993142212973	0.73649190097317
5.1930098389052	0.73659403102214
5.1867207266436	0.73669625823476
5.1804468290997	0.73679858251388
5.1741880911288	0.73690100375644
5.1679444578521	0.73700352185351
5.1617158746556	0.73710613669021
5.1555022871883	0.73720884814578
5.1493036413604	0.73731165609352
5.1431198833419	0.73741456040080
5.1369509595613	0.73751756092910
5.1307968167037	0.73762065753393
5.1246574017094	0.73772385006492
5.1185326617722	0.73782713836577
5.1124225443383	0.73793052227425
5.1063269971044	0.73803400162226
5.1002459680163	0.73813757623578
5.0941794052676	0.73824124593490
5.0881272572980	0.73834501053386
5.0820894727920	0.73844886984103
5.0760660006773	0.73855282365892
5.0700567901235	0.73865687178423
5.0640617905405	0.73876101400785
5.0580809515775	0.73886525011487
5.0521142231210	0.73896957988462
5.0461615552937	0.73907400309069
5.0402228984533	0.73917851950094
5.0342982031906	0.73928312887754
5.0283874203287	0.73938783097700
5.0224905009214	0.73949262555018
5.0166073962517	0.73959751234234
5.0107380578305	0.73970249109318
5.0048824373957	0.73980756153686
4.9990404869101	0.73991272340201
4.9932121585610	0.74001797641184
4.9873974047579	0.74012332028409
4.9815961781323	0.74022875473115
4.9758084315353	0.74033427946003
4.9700341180371	0.74043989417248
4.9642731909256	0.74054559856496
4.9585256037049	0.74065139232874
4.9527913100942	0.74075727514991
4.9470702640264	0.74086324670948
4.9413624196473	0.74096930668336
4.9356677313138	0.74107545474249
4.9299861535932	0.74118169055281
4.9243176412615	0.74128801377540
4.9186621493027	0.74139442406648
4.9130196329072	0.74150092107748
4.9073900474709	0.74160750445511
4.9017733485939	0.74171417384141
4.8961694920790	0.74182092887382
4.8905784339315	0.74192776918524
4.8850001303569	0.74203469440410
4.8794345377604	0.74214170415440
4.8738816127459	0.74224879805583
4.8683413121143	0.74235597572378
4.8628135928629	0.74246323676945
4.8572984121841	0.74257058079991
4.8517957274640	0.74267800741817
4.8463054962819	0.74278551622326
4.8408276764088	0.74289310681028
4.8353622258065	0.74300077877052
