#Parameters = {thARC=0.2; nARC=1; thsub=1; p=1; nSub=3.5}
#"Wavelength / um"	"T (542) [Real Part]"
#---------------------------------------
14.989622900000	0.69135791709564
14.937342202292	0.69137721550403
14.885424925521	0.69139595672604
14.833867293419	0.69141414900258
14.782665581854	0.69143180051314
14.731816117936	0.69144891937570
14.681315279138	0.69146551364660
14.631159492435	0.69148159132049
14.581345233463	0.69149716033019
14.531869025691	0.69151222854668
14.482727439614	0.69152680377896
14.433917091960	0.69154089377404
14.385434644914	0.69155450621688
14.337276805356	0.69156764873032
14.289440324118	0.69158032887505
14.241921995249	0.69159255414959
14.194718655303	0.69160433199024
14.147827182633	0.69161566977109
14.101244496707	0.69162657480400
14.054967557431	0.69163705433857
14.008993364486	0.69164711556219
13.963318956684	0.69165676559998
13.917941411328	0.69166601151489
13.872857843591	0.69167486030765
13.828065405904	0.69168331891684
13.783561287356	0.69169139421891
13.739342713107	0.69169909302823
13.695406943810	0.69170642209713
13.651751275046	0.69171338811594
13.608373036768	0.69171999771309
13.565269592760	0.69172625745514
13.522438340099	0.69173217384686
13.479876708633	0.69173775333131
13.437582160466	0.69174300228995
13.395552189455	0.69174792704269
13.353784320713	0.69175253384799
13.312276110124	0.69175682890299
13.271025143869	0.69176081834360
13.230029037952	0.69176450824460
13.189285437747	0.69176790461978
13.148792017544	0.69177101342204
13.108546480105	0.69177384054355
13.068546556234	0.69177639181584
13.028790004346	0.69177867300997
12.989274610052	0.69178068983668
12.949998185745	0.69178244794650
12.910958570198	0.69178395292996
12.872153628167	0.69178521031767
12.833581250000	0.69178622558058
12.795239351259	0.69178700413007
12.757125872340	0.69178755131814
12.719238778108	0.69178787243761
12.681576057530	0.69178797272229
12.644135723323	0.69178785734717
12.606915811606	0.69178753142857
12.569914381551	0.69178700002442
12.533129515050	0.69178626813436
12.496559316382	0.69178534070002
12.460201911887	0.69178422260519
12.424055449648	0.69178291867602
12.388118099174	0.69178143368128
12.352388051092	0.69177977233255
12.316863516845	0.69177793928441
12.281542728390	0.69177593913476
12.246423937908	0.69177377642492
12.211505417515	0.69177145564001
12.176785458976	0.69176898120905
12.142262373431	0.69176635750530
12.107934491115	0.69176358884645
12.073800161095	0.69176067949489
12.039857751004	0.69175763365795
12.006105646776	0.69175445548817
11.972542252396	0.69175114908354
11.939165989646	0.69174771848777
11.905975297855	0.69174416769054
11.872968633663	0.69174050062779
11.840144470774	0.69173672118197
11.807501299724	0.69173283318231
11.775037627651	0.69172884040511
11.742751978065	0.69172474657402
11.710642890625	0.69172055536028
11.678708920919	0.69171627038308
11.646948640249	0.69171189520975
11.615360635413	0.69170743335613
11.583943508501	0.69170288828681
11.552695876686	0.69169826341544
11.521616372022	0.69169356210504
11.490703641242	0.69168878766826
11.459956345566	0.69168394336773
11.429373160503	0.69167903241629
11.398952775665	0.69167405797738
11.368693894577	0.69166902316527
11.338595234493	0.69166393104544
11.308655526217	0.69165878463480
11.278873513920	0.69165358690208
11.249247954972	0.69164834076812
11.219777619760	0.69164304910617
11.190461291527	0.69163771474221
11.161297766195	0.69163234045528
11.132285852209	0.69162692897781
11.103424370370	0.69162148299590
11.074712153676	0.69161600514970
11.046148047163	0.69161049803368
11.017730907755	0.69160496419699
10.989459604106	0.69159940614378
10.961333016453	0.69159382633351
10.933350036470	0.69158822718133
10.905509567115	0.69158261105834
10.877810522496	0.69157698029199
10.850251827723	0.69157133716636
10.822832418773	0.69156568392253
10.795551242348	0.69156002275890
10.768407255747	0.69155435583153
10.741399426729	0.69154868525446
10.714526733381	0.69154301310009
10.687788163993	0.69153734139948
10.661182716927	0.69153167214269
10.634709400497	0.69152600727917
10.608367232838	0.69152034871802
10.582155241793	0.69151469832840
10.556072464789	0.69150905793986
10.530117948718	0.69150342934264
10.504290749825	0.69149781428806
10.478589933590	0.69149221448886
10.453014574616	0.69148663161951
10.427563756522	0.69148106731660
10.402236571825	0.69147552317914
10.377032121841	0.69147000076895
10.351949516575	0.69146450161096
10.326987874612	0.69145902719360
10.302146323024	0.69145357896911
10.277423997257	0.69144815835392
10.252820041040	0.69144276672895
10.228333606278	0.69143740544000
10.203963852961	0.69143207579809
10.179709949066	0.69142677907977
10.155571070461	0.69142151652753
10.131546400811	0.69141628935006
10.107635131490	0.69141109872268
10.083836461487	0.69140594578765
10.060149597315	0.69140083165450
10.036573752929	0.69139575740040
10.013108149633	0.69139072407051
9.9897520159947	0.69138573267828
9.9665045877660	0.69138078420586
9.9433651077944	0.69137587960439
9.9203328259431	0.69137101979437
9.8974069990096	0.69136620566600
9.8745868906456	0.69136143807953
9.8518717712783	0.69135671786557
9.8292609180328	0.69135204582548
9.8067536146549	0.69134742273167
9.7843491514360	0.69134284932796
9.7620468251384	0.69133832632993
9.7398459389214	0.69133385442522
9.7177458022690	0.69132943427393
9.6957457309185	0.69132506650890
9.6738450467893	0.69132075173607
9.6520430779137	0.69131649053483
9.6303391583681	0.69131228345835
9.6087326282051	0.69130813103388
9.5872228333866	0.69130403376313
9.5658091257179	0.69129999212259
9.5444908627826	0.69129600656385
9.5232674078780	0.69129207751394
9.5021381299525	0.69128820537566
9.4811024035421	0.69128439052790
9.4601596087094	0.69128063332600
9.4393091309824	0.69127693410203
9.4185503612944	0.69127329316515
9.3978826959248	0.69126971080193
9.3773055364404	0.69126618727665
9.3568182896380	0.69126272283168
9.3364203674868	0.69125931768772
9.3161111870727	0.69125597204420
9.2958901705426	0.69125268607954
9.2757567450495	0.69124945995151
9.2557103426984	0.69124629379752
9.2357504004929	0.69124318773493
9.2158763602828	0.69124014186140
9.1960876687117	0.69123715625518
9.1763837771656	0.69123423097540
9.1567641417227	0.69123136606244
9.1372282231027	0.69122856153816
9.1177754866180	0.69122581740628
9.0984054021244	0.69122313365264
9.0791174439733	0.69122051024552
9.0599110909640	0.69121794713596
9.0407858262967	0.69121544425800
9.0217411375263	0.69121300152907
9.0027765165165	0.69121061885023
8.9838914593947	0.69120829610646
8.9650854665072	0.69120603316699
8.9463580423754	0.69120382988557
8.9277086956522	0.69120168610079
8.9091369390788	0.69119960163632
8.8906422894425	0.69119757630126
8.8722242675348	0.69119560989037
8.8538823981099	0.69119370218440
8.8356162098438	0.69119185295034
8.8174252352941	0.69119006194175
8.7993090108600	0.69118832889898
8.7812670767428	0.69118665354947
8.7632989769073	0.69118503560808
8.7454042590432	0.69118347477727
8.7275824745269	0.69118197074745
8.7098331783847	0.69118052319721
8.6921559292549	0.69117913179364
8.6745502893519	0.69117779619252
8.6570158244297	0.69117651603865
8.6395521037464	0.69117529096609
8.6221587000288	0.69117412059843
8.6048351894374	0.69117300454905
8.5875811515325	0.69117194242137
8.5703961692396	0.69117093380911
8.5532798288160	0.69116997829655
8.5362317198178	0.69116907545880
8.5192514350668	0.69116822486199
8.5023385706183	0.69116742606361
8.4854927257288	0.69116667861268
8.4687135028249	0.69116598205002
8.4520005074711	0.69116533590853
8.4353533483399	0.69116473971336
8.4187716371806	0.69116419298221
8.4022549887892	0.69116369522555
8.3858030209790	0.69116324594683
8.3694153545505	0.69116284464277
8.3530916132627	0.69116249080353
8.3368314238042	0.69116218391296
8.3206344157646	0.69116192344885
8.3045002216066	0.69116170888315
8.2884284766381	0.69116153968215
8.2724188189845	0.69116141530676
8.2564708895621	0.69116133521268
8.2405843320506	0.69116129885067
8.2247587928669	0.69116130566670
8.2089939211391	0.69116135510222
8.1932893686800	0.69116144659435
8.1776447899618	0.69116157957608
8.1620598420909	0.69116175347647
8.1465341847826	0.69116196772090
8.1310674803363	0.69116222173122
8.1156593936113	0.69116251492598
8.1003095920022	0.69116284672060
8.0850177454153	0.69116321652762
8.0697835262450	0.69116362375684
8.0546066093498	0.69116406781553
8.0394866720300	0.69116454810862
8.0244233940043	0.69116506403891
8.0094164573871	0.69116561500721
7.9944655466667	0.69116620041256
7.9795703486825	0.69116681965240
7.9647305526036	0.69116747212275
7.9499458499072	0.69116815721838
7.9352159343568	0.69116887433299
7.9205405019815	0.69116962285938
7.9059192510549	0.69117040218965
7.8913518820742	0.69117121171530
7.8768380977404	0.69117205082747
7.8623776029373	0.69117291891705
7.8479701047120	0.69117381537489
7.8336153122550	0.69117473959192
7.8193129368805	0.69117569095930
7.8050626920073	0.69117666886864
7.7908642931393	0.69117767271207
7.7767174578470	0.69117870188246
7.7626219057483	0.69117975577352
7.7485773584906	0.69118083377998
7.7345835397317	0.69118193529771
7.7206401751223	0.69118305972390
7.7067469922879	0.69118420645714
7.6929037208109	0.69118537489762
7.6791100922131	0.69118656444722
7.6653658399386	0.69118777450968
7.6516706993364	0.69118900449070
7.6380244076433	0.69119025379809
7.6244267039674	0.69119152184190
7.6108773292714	0.69119280803453
7.5973760263558	0.69119411179087
7.5839225398432	0.69119543252839
7.5705166161616	0.69119676966730
7.5571580035291	0.69119812263066
7.5438464519376	0.69119949084446
7.5305817131374	0.69120087373776
7.5173635406219	0.69120227074281
7.5041916896120	0.69120368129514
7.4910659170415	0.69120510483366
7.4779859815415	0.69120654080080
7.4649516434263	0.69120798864257
7.4519626646781	0.69120944780869
7.4390188089330	0.69121091775267
7.4261198414664	0.69121239793192
7.4132655291790	0.69121388780783
7.4004556405826	0.69121538684589
7.3876899457861	0.69121689451573
7.3749682164822	0.69121841029126
7.3622902259332	0.69121993365074
7.3496557489581	0.69122146407684
7.3370645619187	0.69122300105675
7.3245164427071	0.69122454408224
7.3120111707317	0.69122609264977
7.2995485269053	0.69122764626053
7.2871282936315	0.69122920442052
7.2747502547925	0.69123076664065
7.2624141957364	0.69123233243679
7.2501199032648	0.69123390132981
7.2378671656205	0.69123547284571
7.2256557724753	0.69123704651563
7.2134855149182	0.69123862187594
7.2013561854432	0.69124019846829
7.1892675779376	0.69124177583966
7.1772194876706	0.69124335354246
7.1652117112811	0.69124493113451
7.1532440467669	0.69124650817916
7.1413162934731	0.69124808424532
7.1294282520809	0.69124965890749
7.1175797245964	0.69125123174582
7.1057705143399	0.69125280234618
7.0940004259347	0.69125437030017
7.0822692652965	0.69125593520516
7.0705768396226	0.69125749666437
7.0589229573817	0.69125905428685
7.0473074283028	0.69126060768759
7.0357300633654	0.69126215648748
7.0241906747891	0.69126370031337
7.0126890760234	0.69126523879814
7.0012250817375	0.69126677158068
6.9897985078107	0.69126829830592
6.9784091713222	0.69126981862490
6.9670568905415	0.69127133219474
6.9557414849188	0.69127283867869
6.9444627750753	0.69127433774616
6.9332205827937	0.69127582907272
6.9220147310090	0.69127731234012
6.9108450437990	0.69127878723633
6.8997113463751	0.69128025345552
6.8886134650735	0.69128171069809
6.8775512273457	0.69128315867068
6.8665244617499	0.69128459708619
6.8555329979419	0.69128602566375
6.8445766666667	0.69128744412878
6.8336552997493	0.69128885221296
6.8227687300865	0.69129024965425
6.8119167916383	0.69129163619686
6.8010993194192	0.69129301159130
6.7903161494904	0.69129437559434
6.7795671189507	0.69129572796902
6.7688520659291	0.69129706848466
6.7581708295762	0.69129839691683
6.7475232500563	0.69129971304735
6.7369091685393	0.69130101666430
6.7263284271932	0.69130230756198
6.7157808691756	0.69130358554092
6.7052663386267	0.69130485040787
6.6947846806610	0.69130610197577
6.6843357413601	0.69130734006376
6.6739193677649	0.69130856449712
6.6635354078684	0.69130977510731
6.6531837106081	0.69131097173189
6.6428641258586	0.69131215421454
6.6325765044248	0.69131332240505
6.6223206980340	0.69131447615925
6.6120965593295	0.69131561533901
6.6019039418630	0.69131673981223
6.5917427000879	0.69131784945280
6.5816126893524	0.69131894414055
6.5715137658922	0.69132002376127
6.5614457868243	0.69132108820663
6.5514086101399	0.69132213737419
6.5414020946978	0.69132317116734
6.5314261002179	0.69132418949526
6.5214804872743	0.69132519227293
6.5115651172893	0.69132617942105
6.5016798525266	0.69132715086602
6.4918245560849	0.69132810653989
6.4819990918919	0.69132904638036
6.4722033246978	0.69132997033068
6.4624371200690	0.69133087833967
6.4527003443823	0.69133177036163
6.4429928648184	0.69133264635633
6.4333145493562	0.69133350628895
6.4236652667667	0.69133435013002
6.4140448866068	0.69133517785543
6.4044532792138	0.69133598944632
6.3948903156997	0.69133678488907
6.3853558679446	0.69133756417525
6.3758498085921	0.69133832730153
6.3663720110427	0.69133907426971
6.3569223494487	0.69133980508659
6.3475006987084	0.69134051976396
6.3381069344609	0.69134121831853
6.3287409330800	0.69134190077192
6.3194025716695	0.69134256715053
6.3100917280572	0.69134321748554
6.3008082807902	0.69134385181287
6.2915521091291	0.69134447017306
6.2823230930427	0.69134507261128
6.2731211132036	0.69134565917722
6.2639460509820	0.69134622992507
6.2547977884415	0.69134678491344
6.2456762083333	0.69134732420532
6.2365811940919	0.69134784786799
6.2275126298297	0.69134835597299
6.2184704003319	0.69134884859606
6.2094543910522	0.69134932581703
6.2004644881075	0.69134978771984
6.1915005782734	0.69135023439239
6.1825625489792	0.69135066592655
6.1736502883031	0.69135108241805
6.1647636849681	0.69135148396644
6.1559026283368	0.69135187067501
6.1470670084068	0.69135224265073
6.1382567158067	0.69135260000421
6.1294716417910	0.69135294284958
6.1207116782360	0.69135327130449
6.1119767176351	0.69135358548999
6.1032666530945	0.69135388553048
6.0945813783289	0.69135417155367
6.0859207876573	0.69135444369046
6.0772847759984	0.69135470207493
6.0686732388664	0.69135494684422
6.0600860723671	0.69135517813851
6.0515231731934	0.69135539610090
6.0429844386212	0.69135560087740
6.0344697665056	0.69135579261681
6.0259790552764	0.69135597147068
6.0175122039342	0.69135613759323
6.0090691120465	0.69135629114128
6.0006496797438	0.69135643227418
5.9922538077154	0.69135656115377
5.9838813972056	0.69135667794425
5.9755323500100	0.69135678281216
5.9672065684713	0.69135687592629
5.9589039554760	0.69135695745763
5.9506244144502	0.69135702757927
5.9423678493558	0.69135708646634
5.9341341646873	0.69135713429595
5.9259232654675	0.69135717124712
5.9177350572444	0.69135719750069
5.9095694460871	0.69135721323928
5.9014263385827	0.69135721864718
5.8933056418321	0.69135721391034
5.8852072634472	0.69135719921621
5.8771311115468	0.69135717475378
5.8690770947533	0.69135714071342
5.8610451221896	0.69135709728684
5.8530351034752	0.69135704466703
5.8450469487229	0.69135698304821
5.8370805685358	0.69135691262569
5.8291358740035	0.69135683359587
5.8212127766990	0.69135674615616
5.8133111886756	0.69135665050486
5.8054310224632	0.69135654684117
5.7975721910656	0.69135643536504
5.7897346079567	0.69135631627718
5.7819181870781	0.69135618977893
5.7741228428351	0.69135605607223
5.7663484900942	0.69135591535952
5.7585950441798	0.69135576784370
5.7508624208709	0.69135561372808
5.7431505363985	0.69135545321625
5.7354593074421	0.69135528651207
5.7277886511272	0.69135511381959
5.7201384850219	0.69135493534297
5.7125087271341	0.69135475128643
5.7048992959087	0.69135456185418
5.6973101102242	0.69135436725037
5.6897410893908	0.69135416767898
5.6821921531463	0.69135396334380
5.6746632216544	0.69135375444839
5.6671542155009	0.69135354119592
5.6596650556919	0.69135332378923
5.6521956636501	0.69135310243066
5.6447459612126	0.69135287732206
5.6373158706281	0.69135264866471
5.6299053145540	0.69135241665923
5.6225142160540	0.69135218150558
5.6151424985952	0.69135194340293
5.6077900860456	0.69135170254966
5.6004569026714	0.69135145914326
5.5931428731343	0.69135121338031
5.5858479224893	0.69135096545639
5.5785719761816	0.69135071556604
5.5713149600446	0.69135046390269
5.5640768002970	0.69135021065863
5.5568574235403	0.69134995602492
5.5496567567568	0.69134970019138
5.5424747273063	0.69134944334649
5.5353112629247	0.69134918567736
5.5281662917204	0.69134892736968
5.5210397421731	0.69134866860766
5.5139315431304	0.69134840957399
5.5068416238060	0.69134815044977
5.4997699137773	0.69134789141448
5.4927163429828	0.69134763264592
5.4856808417200	0.69134737432016
5.4786633406433	0.69134711661150
5.4716637707611	0.69134685969241
5.4646820634342	0.69134660373351
5.4577181503732	0.69134634890348
5.4507719636364	0.69134609536907
5.4438434356274	0.69134584329501
5.4369324990932	0.69134559284398
5.4300390871219	0.69134534417659
5.4231631331404	0.69134509745130
5.4163045709124	0.69134485282440
5.4094633345363	0.69134461044998
5.4026393584430	0.69134437047986
5.3958325773938	0.69134413306358
5.3890429264785	0.69134389834835
5.3822703411131	0.69134366647900
5.3755147570378	0.69134343759797
5.3687761103152	0.69134321184526
5.3620543373278	0.69134298935839
5.3553493747767	0.69134277027237
5.3486611596789	0.69134255471967
5.3419896293656	0.69134234283019
5.3353347214807	0.69134213473122
5.3286963739780	0.69134193054741
5.3220745251198	0.69134173040074
5.3154691134752	0.69134153441052
5.3088800779175	0.69134134269330
5.3023073576229	0.69134115536290
5.2957508920685	0.69134097253036
5.2892106210303	0.69134079430391
5.2826864845815	0.69134062078895
5.2761784230905	0.69134045208803
5.2696863772192	0.69134028830084
5.2632102879213	0.69134012952415
5.2567500964405	0.69133997585182
5.2503057443082	0.69133982737477
5.2438771733427	0.69133968418096
5.2374643256464	0.69133954635537
5.2310671436050	0.69133941398000
5.2246855698850	0.69133928713381
5.2183195474326	0.69133916589275
5.2119690194715	0.69133905032974
5.2056339295016	0.69133894051461
5.1993142212973	0.69133883651414
5.1930098389052	0.69133873839202
5.1867207266436	0.69133864620886
5.1804468290997	0.69133856002215
5.1741880911288	0.69133847988626
5.1679444578521	0.69133840585246
5.1617158746556	0.69133833796886
5.1555022871883	0.69133827628046
5.1493036413604	0.69133822082910
5.1431198833419	0.69133817165347
5.1369509595613	0.69133812878911
5.1307968167037	0.69133809226842
5.1246574017094	0.69133806212061
5.1185326617722	0.69133803837175
5.1124225443383	0.69133802104475
5.1063269971044	0.69133801015934
5.1002459680163	0.69133800573213
5.0941794052676	0.69133800777653
5.0881272572980	0.69133801630283
5.0820894727920	0.69133803131814
5.0760660006773	0.69133805282646
5.0700567901235	0.69133808082861
5.0640617905405	0.69133811532232
5.0580809515775	0.69133815630216
5.0521142231210	0.69133820375961
5.0461615552937	0.69133825768303
5.0402228984533	0.69133831805768
5.0342982031906	0.69133838486575
5.0283874203287	0.69133845808634
5.0224905009214	0.69133853769550
5.0166073962517	0.69133862366622
5.0107380578305	0.69133871596849
5.0048824373957	0.69133881456924
4.9990404869101	0.69133891943243
4.9932121585610	0.69133903051904
4.9873974047579	0.69133914778705
4.9815961781323	0.69133927119154
4.9758084315353	0.69133940068464
4.9700341180371	0.69133953621557
4.9642731909256	0.69133967773068
4.9585256037049	0.69133982517344
4.9527913100942	0.69133997848452
4.9470702640264	0.69134013760172
4.9413624196473	0.69134030246010
4.9356677313138	0.69134047299193
4.9299861535932	0.69134064912674
4.9243176412615	0.69134083079138
4.9186621493027	0.69134101790998
4.9130196329072	0.69134121040404
4.9073900474709	0.69134140819243
4.9017733485939	0.69134161119142
4.8961694920790	0.69134181931473
4.8905784339315	0.69134203247353
4.8850001303569	0.69134225057652
4.8794345377604	0.69134247352991
4.8738816127459	0.69134270123750
4.8683413121143	0.69134293360067
4.8628135928629	0.69134317051846
4.8572984121841	0.69134341188759
4.8517957274640	0.69134365760248
4.8463054962819	0.69134390755530
4.8408276764088	0.69134416163601
4.8353622258065	0.69134441973241
