#Parameters = {thARC=0; nARC=1.25; thsub=1; p=1; nSub=3.5}
#"Wavelength / um"	"T (547) [Real Part]"
#---------------------------------------
14.989622900000	0.69135810478081
14.937342202292	0.69136885539323
14.885424925521	0.69137927502507
14.833867293419	0.69138936889912
14.782665581854	0.69139914219397
14.731816117936	0.69140860004400
14.681315279138	0.69141774753944
14.631159492435	0.69142658972640
14.581345233463	0.69143513160694
14.531869025691	0.69144337813910
14.482727439614	0.69145133423693
14.433917091960	0.69145900477063
14.385434644914	0.69146639456652
14.337276805356	0.69147350840717
14.289440324118	0.69148035103143
14.241921995249	0.69148692713452
14.194718655303	0.69149324136812
14.147827182633	0.69149929834043
14.101244496707	0.69150510261623
14.054967557431	0.69151065871704
14.008993364486	0.69151597112112
13.963318956684	0.69152104426364
13.917941411328	0.69152588253673
13.872857843591	0.69153049028959
13.828065405904	0.69153487182860
13.783561287356	0.69153903141742
13.739342713107	0.69154297327711
13.695406943810	0.69154670158620
13.651751275046	0.69155022048088
13.608373036768	0.69155353405506
13.565269592760	0.69155664636048
13.522438340099	0.69155956140689
13.479876708633	0.69156228316214
13.437582160466	0.69156481555230
13.395552189455	0.69156716246182
13.353784320713	0.69156932773365
13.312276110124	0.69157131516937
13.271025143869	0.69157312852935
13.230029037952	0.69157477153286
13.189285437747	0.69157624785826
13.148792017544	0.69157756114311
13.108546480105	0.69157871498434
13.068546556234	0.69157971293837
13.028790004346	0.69158055852133
12.989274610052	0.69158125520914
12.949998185745	0.69158180643773
12.910958570198	0.69158221560316
12.872153628167	0.69158248606182
12.833581250000	0.69158262113056
12.795239351259	0.69158262408687
12.757125872340	0.69158249816909
12.719238778108	0.69158224657650
12.681576057530	0.69158187246958
12.644135723323	0.69158137897013
12.606915811606	0.69158076916147
12.569914381551	0.69158004608860
12.533129515050	0.69157921275843
12.496559316382	0.69157827213991
12.460201911887	0.69157722716423
12.424055449648	0.69157608072503
12.388118099174	0.69157483567857
12.352388051092	0.69157349484392
12.316863516845	0.69157206100316
12.281542728390	0.69157053690157
12.246423937908	0.69156892524782
12.211505417515	0.69156722871418
12.176785458976	0.69156544993671
12.142262373431	0.69156359151546
12.107934491115	0.69156165601468
12.073800161095	0.69155964596301
12.039857751004	0.69155756385368
12.006105646776	0.69155541214474
11.972542252396	0.69155319325925
11.939165989646	0.69155090958549
11.905975297855	0.69154856347718
11.872968633663	0.69154615725365
11.840144470774	0.69154369320012
11.807501299724	0.69154117356785
11.775037627651	0.69153860057439
11.742751978065	0.69153597640379
11.710642890625	0.69153330320680
11.678708920919	0.69153058310110
11.646948640249	0.69152781817152
11.615360635413	0.69152501047025
11.583943508501	0.69152216201706
11.552695876686	0.69151927479955
11.521616372022	0.69151635077332
11.490703641242	0.69151339186222
11.459956345566	0.69151039995860
11.429373160503	0.69150737692347
11.398952775665	0.69150432458679
11.368693894577	0.69150124474766
11.338595234493	0.69149813917454
11.308655526217	0.69149500960551
11.278873513920	0.69149185774846
11.249247954972	0.69148868528135
11.219777619760	0.69148549385240
11.190461291527	0.69148228508038
11.161297766195	0.69147906055475
11.132285852209	0.69147582183599
11.103424370370	0.69147257045576
11.074712153676	0.69146930791716
11.046148047163	0.69146603569493
11.017730907755	0.69146275523575
10.989459604106	0.69145946795839
10.961333016453	0.69145617525400
10.933350036470	0.69145287848630
10.905509567115	0.69144957899186
10.877810522496	0.69144627808030
10.850251827723	0.69144297703452
10.822832418773	0.69143967711095
10.795551242348	0.69143637953979
10.768407255747	0.69143308552521
10.741399426729	0.69142979624562
10.714526733381	0.69142651285388
10.687788163993	0.69142323647755
10.661182716927	0.69141996821910
10.634709400497	0.69141670915619
10.608367232838	0.69141346034185
10.582155241793	0.69141022280473
10.556072464789	0.69140699754938
10.530117948718	0.69140378555639
10.504290749825	0.69140058778273
10.478589933590	0.69139740516190
10.453014574616	0.69139423860421
10.427563756522	0.69139108899699
10.402236571825	0.69138795720484
10.377032121841	0.69138484406984
10.351949516575	0.69138175041181
10.326987874612	0.69137867702852
10.302146323024	0.69137562469594
10.277423997257	0.69137259416844
10.252820041040	0.69136958617906
10.228333606278	0.69136660143974
10.203963852961	0.69136364064149
10.179709949066	0.69136070445471
10.155571070461	0.69135779352935
10.131546400811	0.69135490849515
10.107635131490	0.69135204996193
10.083836461487	0.69134921851972
10.060149597315	0.69134641473907
10.036573752929	0.69134363917124
10.013108149633	0.69134089234842
9.9897520159947	0.69133817478399
9.9665045877660	0.69133548697271
9.9433651077944	0.69133282939097
9.9203328259431	0.69133020249700
9.8974069990096	0.69132760673111
9.8745868906456	0.69132504251589
9.8518717712783	0.69132251025646
9.8292609180328	0.69132001034066
9.8067536146549	0.69131754313931
9.7843491514360	0.69131510900639
9.7620468251384	0.69131270827931
9.7398459389214	0.69131034127907
9.7177458022690	0.69130800831053
9.6957457309185	0.69130570966261
9.6738450467893	0.69130344560847
9.6520430779137	0.69130121640581
9.6303391583681	0.69129902229700
9.6087326282051	0.69129686350934
9.5872228333866	0.69129474025528
9.5658091257179	0.69129265273261
9.5444908627826	0.69129060112467
9.5232674078780	0.69128858560059
9.5021381299525	0.69128660631548
9.4811024035421	0.69128466341062
9.4601596087094	0.69128275701373
9.4393091309824	0.69128088723911
9.4185503612944	0.69127905418789
9.3978826959248	0.69127725794821
9.3773055364404	0.69127549859547
9.3568182896380	0.69127377619246
9.3364203674868	0.69127209078964
9.3161111870727	0.69127044242528
9.2958901705426	0.69126883112570
9.2757567450495	0.69126725690548
9.2557103426984	0.69126571976760
9.2357504004929	0.69126421970370
9.2158763602828	0.69126275669424
9.1960876687117	0.69126133070874
9.1763837771656	0.69125994170589
9.1567641417227	0.69125858963386
9.1372282231027	0.69125727443038
9.1177754866180	0.69125599602301
9.0984054021244	0.69125475432930
9.0791174439733	0.69125354925697
9.0599110909640	0.69125238070413
9.0407858262967	0.69125124855943
9.0217411375263	0.69125015270228
9.0027765165165	0.69124909300302
8.9838914593947	0.69124806932308
8.9650854665072	0.69124708151521
8.9463580423754	0.69124612942364
8.9277086956522	0.69124521288423
8.9091369390788	0.69124433172471
8.8906422894425	0.69124348576480
8.8722242675348	0.69124267481642
8.8538823981099	0.69124189868386
8.8356162098438	0.69124115716395
8.8174252352941	0.69124045004623
8.7993090108600	0.69123977711313
8.7812670767428	0.69123913814014
8.7632989769073	0.69123853289595
8.7454042590432	0.69123796114269
8.7275824745269	0.69123742263600
8.7098331783847	0.69123691712529
8.6921559292549	0.69123644435383
8.6745502893519	0.69123600405896
8.6570158244297	0.69123559597223
8.6395521037464	0.69123521981955
8.6221587000288	0.69123487532139
8.6048351894374	0.69123456219290
8.5875811515325	0.69123428014407
8.5703961692396	0.69123402887991
8.5532798288160	0.69123380810058
8.5362317198178	0.69123361750154
8.5192514350668	0.69123345677373
8.5023385706183	0.69123332560369
8.4854927257288	0.69123322367372
8.4687135028249	0.69123315066202
8.4520005074711	0.69123310624287
8.4353533483399	0.69123309008671
8.4187716371806	0.69123310186034
8.4022549887892	0.69123314122704
8.3858030209790	0.69123320784672
8.3694153545505	0.69123330137604
8.3530916132627	0.69123342146855
8.3368314238042	0.69123356777487
8.3206344157646	0.69123373994276
8.3045002216066	0.69123393761728
8.2884284766381	0.69123416044096
8.2724188189845	0.69123440805387
8.2564708895621	0.69123468009379
8.2405843320506	0.69123497619631
8.2247587928669	0.69123529599498
8.2089939211391	0.69123563912143
8.1932893686800	0.69123600520550
8.1776447899618	0.69123639387533
8.1620598420909	0.69123680475752
8.1465341847826	0.69123723747725
8.1310674803363	0.69123769165834
8.1156593936113	0.69123816692346
8.1003095920022	0.69123866289416
8.0850177454153	0.69123917919103
8.0697835262450	0.69123971543382
8.0546066093498	0.69124027124152
8.0394866720300	0.69124084623247
8.0244233940043	0.69124144002451
8.0094164573871	0.69124205223506
7.9944655466667	0.69124268248121
7.9795703486825	0.69124333037984
7.9647305526036	0.69124399554775
7.9499458499072	0.69124467760172
7.9352159343568	0.69124537615862
7.9205405019815	0.69124609083552
7.9059192510549	0.69124682124981
7.8913518820742	0.69124756701922
7.8768380977404	0.69124832776202
7.8623776029373	0.69124910309701
7.8479701047120	0.69124989264370
7.8336153122550	0.69125069602234
7.8193129368805	0.69125151285402
7.8050626920073	0.69125234276081
7.7908642931393	0.69125318536575
7.7767174578470	0.69125404029304
7.7626219057483	0.69125490716806
7.7485773584906	0.69125578561744
7.7345835397317	0.69125667526921
7.7206401751223	0.69125757575282
7.7067469922879	0.69125848669923
7.6929037208109	0.69125940774101
7.6791100922131	0.69126033851238
7.6653658399386	0.69126127864933
7.6516706993364	0.69126222778964
7.6380244076433	0.69126318557301
7.6244267039674	0.69126415164107
7.6108773292714	0.69126512563750
7.5973760263558	0.69126610720807
7.5839225398432	0.69126709600071
7.5705166161616	0.69126809166559
7.5571580035291	0.69126909385516
7.5438464519376	0.69127010222424
7.5305817131374	0.69127111643005
7.5173635406219	0.69127213613229
7.5041916896120	0.69127316099320
7.4910659170415	0.69127419067762
7.4779859815415	0.69127522485303
7.4649516434263	0.69127626318960
7.4519626646781	0.69127730536029
7.4390188089330	0.69127835104085
7.4261198414664	0.69127939990987
7.4132655291790	0.69128045164890
7.4004556405826	0.69128150594240
7.3876899457861	0.69128256247786
7.3749682164822	0.69128362094583
7.3622902259332	0.69128468103994
7.3496557489581	0.69128574245695
7.3370645619187	0.69128680489684
7.3245164427071	0.69128786806278
7.3120111707317	0.69128893166122
7.2995485269053	0.69128999540192
7.2871282936315	0.69129105899795
7.2747502547925	0.69129212216578
7.2624141957364	0.69129318462529
7.2501199032648	0.69129424609980
7.2378671656205	0.69129530631611
7.2256557724753	0.69129636500453
7.2134855149182	0.69129742189891
7.2013561854432	0.69129847673667
7.1892675779376	0.69129952925883
7.1772194876706	0.69130057921002
7.1652117112811	0.69130162633854
7.1532440467669	0.69130267039636
7.1413162934731	0.69130371113913
7.1294282520809	0.69130474832626
7.1175797245964	0.69130578172086
7.1057705143399	0.69130681108984
7.0940004259347	0.69130783620386
7.0822692652965	0.69130885683740
7.0705768396226	0.69130987276875
7.0589229573817	0.69131088378005
7.0473074283028	0.69131188965726
7.0357300633654	0.69131289019023
7.0241906747891	0.69131388517267
7.0126890760234	0.69131487440217
7.0012250817375	0.69131585768024
6.9897985078107	0.69131683481228
6.9784091713222	0.69131780560761
6.9670568905415	0.69131876987949
6.9557414849188	0.69131972744508
6.9444627750753	0.69132067812550
6.9332205827937	0.69132162174582
6.9220147310090	0.69132255813502
6.9108450437990	0.69132348712607
6.8997113463751	0.69132440855586
6.8886134650735	0.69132532226525
6.8775512273457	0.69132622809904
6.8665244617499	0.69132712590598
6.8555329979419	0.69132801553880
6.8445766666667	0.69132889685412
6.8336552997493	0.69132976971255
6.8227687300865	0.69133063397863
6.8119167916383	0.69133148952082
6.8010993194192	0.69133233621151
6.7903161494904	0.69133317392702
6.7795671189507	0.69133400254757
6.7688520659291	0.69133482195730
6.7581708295762	0.69133563204423
6.7475232500563	0.69133643270027
6.7369091685393	0.69133722382119
6.7263284271932	0.69133800530666
6.7157808691756	0.69133877706014
6.7052663386267	0.69133953898897
6.6947846806610	0.69134029100430
6.6843357413601	0.69134103302107
6.6739193677649	0.69134176495803
6.6635354078684	0.69134248673768
6.6531837106081	0.69134319828629
6.6428641258586	0.69134389953388
6.6325765044248	0.69134459041416
6.6223206980340	0.69134527086456
6.6120965593295	0.69134594082619
6.6019039418630	0.69134660024380
6.5917427000879	0.69134724906580
6.5816126893524	0.69134788724419
6.5715137658922	0.69134851473460
6.5614457868243	0.69134913149618
6.5514086101399	0.69134973749166
6.5414020946978	0.69135033268729
6.5314261002179	0.69135091705279
6.5214804872743	0.69135149056137
6.5115651172893	0.69135205318968
6.5016798525266	0.69135260491778
6.4918245560849	0.69135314572911
6.4819990918919	0.69135367561048
6.4722033246978	0.69135419455203
6.4624371200690	0.69135470254721
6.4527003443823	0.69135519959272
6.4429928648184	0.69135568568852
6.4333145493562	0.69135616083777
6.4236652667667	0.69135662504681
6.4140448866068	0.69135707832513
6.4044532792138	0.69135752068533
6.3948903156997	0.69135795214310
6.3853558679446	0.69135837271718
6.3758498085921	0.69135878242930
6.3663720110427	0.69135918130421
6.3569223494487	0.69135956936957
6.3475006987084	0.69135994665597
6.3381069344609	0.69136031319687
6.3287409330800	0.69136066902858
6.3194025716695	0.69136101419019
6.3100917280572	0.69136134872359
6.3008082807902	0.69136167267337
6.2915521091291	0.69136198608682
6.2823230930427	0.69136228901390
6.2731211132036	0.69136258150718
6.2639460509820	0.69136286362179
6.2547977884415	0.69136313541542
6.2456762083333	0.69136339694825
6.2365811940919	0.69136364828294
6.2275126298297	0.69136388948455
6.2184704003319	0.69136412062054
6.2094543910522	0.69136434176069
6.2004644881075	0.69136455297710
6.1915005782734	0.69136475434413
6.1825625489792	0.69136494593835
6.1736502883031	0.69136512783852
6.1647636849681	0.69136530012554
6.1559026283368	0.69136546288238
6.1470670084068	0.69136561619410
6.1382567158067	0.69136576014776
6.1294716417910	0.69136589483237
6.1207116782360	0.69136602033891
6.1119767176351	0.69136613676020
6.1032666530945	0.69136624419094
6.0945813783289	0.69136634272761
6.0859207876573	0.69136643246845
6.0772847759984	0.69136651351343
6.0686732388664	0.69136658596417
6.0600860723671	0.69136664992394
6.0515231731934	0.69136670549758
6.0429844386212	0.69136675279148
6.0344697665056	0.69136679191353
6.0259790552764	0.69136682297306
6.0175122039342	0.69136684608083
6.0090691120465	0.69136686134897
6.0006496797438	0.69136686889091
5.9922538077154	0.69136686882138
5.9838813972056	0.69136686125636
5.9755323500100	0.69136684631299
5.9672065684713	0.69136682410959
5.9589039554760	0.69136679476557
5.9506244144502	0.69136675840140
5.9423678493558	0.69136671513859
5.9341341646873	0.69136666509960
5.9259232654675	0.69136660840784
5.9177350572444	0.69136654518760
5.9095694460871	0.69136647556402
5.9014263385827	0.69136639966303
5.8933056418321	0.69136631761133
5.8852072634472	0.69136622953634
5.8771311115468	0.69136613556615
5.8690770947533	0.69136603582946
5.8610451221896	0.69136593045557
5.8530351034752	0.69136581957434
5.8450469487229	0.69136570331610
5.8370805685358	0.69136558181167
5.8291358740035	0.69136545519226
5.8212127766990	0.69136532358946
5.8133111886756	0.69136518713522
5.8054310224632	0.69136504596173
5.7975721910656	0.69136490020148
5.7897346079567	0.69136474998713
5.7819181870781	0.69136459545152
5.7741228428351	0.69136443672763
5.7663484900942	0.69136427394849
5.7585950441798	0.69136410724720
5.7508624208709	0.69136393675687
5.7431505363985	0.69136376261054
5.7354593074421	0.69136358494120
5.7277886511272	0.69136340388171
5.7201384850219	0.69136321956479
5.7125087271341	0.69136303212295
5.7048992959087	0.69136284168847
5.6973101102242	0.69136264839335
5.6897410893908	0.69136245236930
5.6821921531463	0.69136225374766
5.6746632216544	0.69136205265939
5.6671542155009	0.69136184923503
5.6596650556919	0.69136164360465
5.6521956636501	0.69136143589784
5.6447459612126	0.69136122624362
5.6373158706281	0.69136101477048
5.6299053145540	0.69136080160627
5.6225142160540	0.69136058687823
5.6151424985952	0.69136037071289
5.6077900860456	0.69136015323609
5.6004569026714	0.69135993457291
5.5931428731343	0.69135971484766
5.5858479224893	0.69135949418383
5.5785719761816	0.69135927270407
5.5713149600446	0.69135905053013
5.5640768002970	0.69135882778287
5.5568574235403	0.69135860458220
5.5496567567568	0.69135838104703
5.5424747273063	0.69135815729529
5.5353112629247	0.69135793344387
5.5281662917204	0.69135770960856
5.5210397421731	0.69135748590409
5.5139315431304	0.69135726244403
5.5068416238060	0.69135703934081
5.4997699137773	0.69135681670565
5.4927163429828	0.69135659464859
5.4856808417200	0.69135637327839
5.4786633406433	0.69135615270257
5.4716637707611	0.69135593302732
5.4646820634342	0.69135571435752
5.4577181503732	0.69135549679672
5.4507719636364	0.69135528044705
5.4438434356274	0.69135506540928
5.4369324990932	0.69135485178273
5.4300390871219	0.69135463966527
5.4231631331404	0.69135442915330
5.4163045709124	0.69135422034174
5.4094633345363	0.69135401332396
5.4026393584430	0.69135380819180
5.3958325773938	0.69135360503554
5.3890429264785	0.69135340394387
5.3822703411131	0.69135320500388
5.3755147570378	0.69135300830102
5.3687761103152	0.69135281391911
5.3620543373278	0.69135262194029
5.3553493747767	0.69135243244503
5.3486611596789	0.69135224551209
5.3419896293656	0.69135206121850
5.3353347214807	0.69135187963958
5.3286963739780	0.69135170084888
5.3220745251198	0.69135152491816
5.3154691134752	0.69135135191743
5.3088800779175	0.69135118191489
5.3023073576229	0.69135101497691
5.2957508920685	0.69135085116804
5.2892106210303	0.69135069055100
5.2826864845815	0.69135053318664
5.2761784230905	0.69135037913394
5.2696863772192	0.69135022845001
5.2632102879213	0.69135008119008
5.2567500964405	0.69134993740745
5.2503057443082	0.69134979715354
5.2438771733427	0.69134966047782
5.2374643256464	0.69134952742786
5.2310671436050	0.69134939804926
5.2246855698850	0.69134927238571
5.2183195474326	0.69134915047891
5.2119690194715	0.69134903236863
5.2056339295016	0.69134891809265
5.1993142212973	0.69134880768679
5.1930098389052	0.69134870118490
5.1867207266436	0.69134859861883
5.1804468290997	0.69134850001845
5.1741880911288	0.69134840541164
5.1679444578521	0.69134831482430
5.1617158746556	0.69134822828033
5.1555022871883	0.69134814580161
5.1493036413604	0.69134806740805
5.1431198833419	0.69134799311756
5.1369509595613	0.69134792294603
5.1307968167037	0.69134785690737
5.1246574017094	0.69134779501349
5.1185326617722	0.69134773727429
5.1124225443383	0.69134768369771
5.1063269971044	0.69134763428965
5.1002459680163	0.69134758905407
5.0941794052676	0.69134754799291
5.0881272572980	0.69134751110615
5.0820894727920	0.69134747839179
5.0760660006773	0.69134744984586
5.0700567901235	0.69134742546242
5.0640617905405	0.69134740523358
5.0580809515775	0.69134738914950
5.0521142231210	0.69134737719838
5.0461615552937	0.69134736936652
5.0402228984533	0.69134736563826
5.0342982031906	0.69134736599604
5.0283874203287	0.69134737042039
5.0224905009214	0.69134737888993
5.0166073962517	0.69134739138142
5.0107380578305	0.69134740786973
5.0048824373957	0.69134742832785
4.9990404869101	0.69134745272694
4.9932121585610	0.69134748103633
4.9873974047579	0.69134751322349
4.9815961781323	0.69134754925412
4.9758084315353	0.69134758909209
4.9700341180371	0.69134763269950
4.9642731909256	0.69134768003670
4.9585256037049	0.69134773106225
4.9527913100942	0.69134778573301
4.9470702640264	0.69134784400412
4.9413624196473	0.69134790582899
4.9356677313138	0.69134797115939
4.9299861535932	0.69134803994538
4.9243176412615	0.69134811213542
4.9186621493027	0.69134818767630
4.9130196329072	0.69134826651324
4.9073900474709	0.69134834858985
4.9017733485939	0.69134843384819
4.8961694920790	0.69134852222875
4.8905784339315	0.69134861367053
4.8850001303569	0.69134870811100
4.8794345377604	0.69134880548617
4.8738816127459	0.69134890573058
4.8683413121143	0.69134900877735
4.8628135928629	0.69134911455818
4.8572984121841	0.69134922300338
4.8517957274640	0.69134933404192
4.8463054962819	0.69134944760143
4.8408276764088	0.69134956360820
4.8353622258065	0.69134968198726
