#Parameters = {thARC=0; nARC=1; thsub=1; p=1; nSub=1.25}
#"Wavelength / um"	"T (55) [Real Part]"
#--------------------------------------
14.989622900000	0.98765436650151
14.937342202292	0.98765999133739
14.885424925521	0.98766551206276
14.833867293419	0.98767092966297
14.782665581854	0.98767624511850
14.731816117936	0.98768145940495
14.681315279138	0.98768657349307
14.631159492435	0.98769158834872
14.581345233463	0.98769650493291
14.531869025691	0.98770132420180
14.482727439614	0.98770604710667
14.433917091960	0.98771067459398
14.385434644914	0.98771520760532
14.337276805356	0.98771964707743
14.289440324118	0.98772399394223
14.241921995249	0.98772824912679
14.194718655303	0.98773241355337
14.147827182633	0.98773648813937
14.101244496707	0.98774047379739
14.054967557431	0.98774437143521
14.008993364486	0.98774818195579
13.963318956684	0.98775190625728
13.917941411328	0.98775554523304
13.872857843591	0.98775909977162
13.828065405904	0.98776257075677
13.783561287356	0.98776595906746
13.739342713107	0.98776926557788
13.695406943810	0.98777249115744
13.651751275046	0.98777563667078
13.608373036768	0.98777870297775
13.565269592760	0.98778169093347
13.522438340099	0.98778460138830
13.479876708633	0.98778743518782
13.437582160466	0.98779019317290
13.395552189455	0.98779287617966
13.353784320713	0.98779548503949
13.312276110124	0.98779802057905
13.271025143869	0.98780048362029
13.230029037952	0.98780287498042
13.189285437747	0.98780519547199
13.148792017544	0.98780744590282
13.108546480105	0.98780962707604
13.068546556234	0.98781173979008
13.028790004346	0.98781378483873
12.989274610052	0.98781576301108
12.949998185745	0.98781767509155
12.910958570198	0.98781952185992
12.872153628167	0.98782130409130
12.833581250000	0.98782302255617
12.795239351259	0.98782467802037
12.757125872340	0.98782627124512
12.719238778108	0.98782780298699
12.681576057530	0.98782927399798
12.644135723323	0.98783068502544
12.606915811606	0.98783203681214
12.569914381551	0.98783333009628
12.533129515050	0.98783456561145
12.496559316382	0.98783574408667
12.460201911887	0.98783686624640
12.424055449648	0.98783793281054
12.388118099174	0.98783894449445
12.352388051092	0.98783990200892
12.316863516845	0.98784080606025
12.281542728390	0.98784165735018
12.246423937908	0.98784245657595
12.211505417515	0.98784320443028
12.176785458976	0.98784390160142
12.142262373431	0.98784454877309
12.107934491115	0.98784514662457
12.073800161095	0.98784569583064
12.039857751004	0.98784619706164
12.006105646776	0.98784665098342
11.972542252396	0.98784705825743
11.939165989646	0.98784741954066
11.905975297855	0.98784773548568
11.872968633663	0.98784800674064
11.840144470774	0.98784823394929
11.807501299724	0.98784841775098
11.775037627651	0.98784855878067
11.742751978065	0.98784865766894
11.710642890625	0.98784871504202
11.678708920919	0.98784873152177
11.646948640249	0.98784870772568
11.615360635413	0.98784864426694
11.583943508501	0.98784854175439
11.552695876686	0.98784840079256
11.521616372022	0.98784822198166
11.490703641242	0.98784800591762
11.459956345566	0.98784775319207
11.429373160503	0.98784746439237
11.398952775665	0.98784714010160
11.368693894577	0.98784678089861
11.338595234493	0.98784638735798
11.308655526217	0.98784596005006
11.278873513920	0.98784549954100
11.249247954972	0.98784500639269
11.219777619760	0.98784448116287
11.190461291527	0.98784392440504
11.161297766195	0.98784333666856
11.132285852209	0.98784271849860
11.103424370370	0.98784207043617
11.074712153676	0.98784139301814
11.046148047163	0.98784068677724
11.017730907755	0.98783995224207
10.989459604106	0.98783918993712
10.961333016453	0.98783840038279
10.933350036470	0.98783758409536
10.905509567115	0.98783674158707
10.877810522496	0.98783587336606
10.850251827723	0.98783497993642
10.822832418773	0.98783406179820
10.795551242348	0.98783311944742
10.768407255747	0.98783215337607
10.741399426729	0.98783116407213
10.714526733381	0.98783015201959
10.687788163993	0.98782911769845
10.661182716927	0.98782806158473
10.634709400497	0.98782698415050
10.608367232838	0.98782588586387
10.582155241793	0.98782476718902
10.556072464789	0.98782362858619
10.530117948718	0.98782247051172
10.504290749825	0.98782129341804
10.478589933590	0.98782009775370
10.453014574616	0.98781888396337
10.427563756522	0.98781765248784
10.402236571825	0.98781640376407
10.377032121841	0.98781513822516
10.351949516575	0.98781385630041
10.326987874612	0.98781255841528
10.302146323024	0.98781124499143
10.277423997257	0.98780991644674
10.252820041040	0.98780857319532
10.228333606278	0.98780721564749
10.203963852961	0.98780584420985
10.179709949066	0.98780445928524
10.155571070461	0.98780306127277
10.131546400811	0.98780165056787
10.107635131490	0.98780022756222
10.083836461487	0.98779879264386
10.060149597315	0.98779734619713
10.036573752929	0.98779588860272
10.013108149633	0.98779442023766
9.9897520159947	0.98779294147536
9.9665045877660	0.98779145268560
9.9433651077944	0.98778995423455
9.9203328259431	0.98778844648478
9.8974069990096	0.98778692979531
9.8745868906456	0.98778540452154
9.8518717712783	0.98778387101536
9.8292609180328	0.98778232962510
9.8067536146549	0.98778078069555
9.7843491514360	0.98777922456801
9.7620468251384	0.98777766158026
9.7398459389214	0.98777609206659
9.7177458022690	0.98777451635784
9.6957457309185	0.98777293478135
9.6738450467893	0.98777134766105
9.6520430779137	0.98776975531741
9.6303391583681	0.98776815806751
9.6087326282051	0.98776655622498
9.5872228333866	0.98776495010009
9.5658091257179	0.98776333999973
9.5444908627826	0.98776172622741
9.5232674078780	0.98776010908330
9.5021381299525	0.98775848886423
9.4811024035421	0.98775686586370
9.4601596087094	0.98775524037191
9.4393091309824	0.98775361267576
9.4185503612944	0.98775198305886
9.3978826959248	0.98775035180157
9.3773055364404	0.98774871918098
9.3568182896380	0.98774708547095
9.3364203674868	0.98774545094210
9.3161111870727	0.98774381586186
9.2958901705426	0.98774218049445
9.2757567450495	0.98774054510091
9.2557103426984	0.98773890993910
9.2357504004929	0.98773727526374
9.2158763602828	0.98773564132639
9.1960876687117	0.98773400837551
9.1763837771656	0.98773237665642
9.1567641417227	0.98773074641136
9.1372282231027	0.98772911787948
9.1177754866180	0.98772749129686
9.0984054021244	0.98772586689652
9.0791174439733	0.98772424490845
9.0599110909640	0.98772262555960
9.0407858262967	0.98772100907392
9.0217411375263	0.98771939567235
9.0027765165165	0.98771778557286
8.9838914593947	0.98771617899044
8.9650854665072	0.98771457613712
8.9463580423754	0.98771297722200
8.9277086956522	0.98771138245126
8.9091369390788	0.98770979202815
8.8906422894425	0.98770820615305
8.8722242675348	0.98770662502342
8.8538823981099	0.98770504883388
8.8356162098438	0.98770347777620
8.8174252352941	0.98770191203928
8.7993090108600	0.98770035180924
8.7812670767428	0.98769879726934
8.7632989769073	0.98769724860009
8.7454042590432	0.98769570597920
8.7275824745269	0.98769416958161
8.7098331783847	0.98769263957951
8.6921559292549	0.98769111614236
8.6745502893519	0.98768959943690
8.6570158244297	0.98768808962715
8.6395521037464	0.98768658687444
8.6221587000288	0.98768509133744
8.6048351894374	0.98768360317213
8.5875811515325	0.98768212253187
8.5703961692396	0.98768064956735
8.5532798288160	0.98767918442667
8.5362317198178	0.98767772725532
8.5192514350668	0.98767627819620
8.5023385706183	0.98767483738962
8.4854927257288	0.98767340497334
8.4687135028249	0.98767198108258
8.4520005074711	0.98767056585003
8.4353533483399	0.98766915940585
8.4187716371806	0.98766776187770
8.4022549887892	0.98766637339077
8.3858030209790	0.98766499406777
8.3694153545505	0.98766362402894
8.3530916132627	0.98766226339208
8.3368314238042	0.98766091227259
8.3206344157646	0.98765957078343
8.3045002216066	0.98765823903516
8.2884284766381	0.98765691713597
8.2724188189845	0.98765560519168
8.2564708895621	0.98765430330575
8.2405843320506	0.98765301157930
8.2247587928669	0.98765173011113
8.2089939211391	0.98765045899773
8.1932893686800	0.98764919833329
8.1776447899618	0.98764794820974
8.1620598420909	0.98764670871670
8.1465341847826	0.98764547994160
8.1310674803363	0.98764426196958
8.1156593936113	0.98764305488358
8.1003095920022	0.98764185876435
8.0850177454153	0.98764067369043
8.0697835262450	0.98763949973818
8.0546066093498	0.98763833698180
8.0394866720300	0.98763718549336
8.0244233940043	0.98763604534278
8.0094164573871	0.98763491659785
7.9944655466667	0.98763379932430
7.9795703486825	0.98763269358573
7.9647305526036	0.98763159944368
7.9499458499072	0.98763051695763
7.9352159343568	0.98762944618502
7.9205405019815	0.98762838718126
7.9059192510549	0.98762733999975
7.8913518820742	0.98762630469186
7.8768380977404	0.98762528130702
7.8623776029373	0.98762426989265
7.8479701047120	0.98762327049423
7.8336153122550	0.98762228315530
7.8193129368805	0.98762130791748
7.8050626920073	0.98762034482045
7.7908642931393	0.98761939390202
7.7767174578470	0.98761845519811
7.7626219057483	0.98761752874276
7.7485773584906	0.98761661456816
7.7345835397317	0.98761571270466
7.7206401751223	0.98761482318081
7.7067469922879	0.98761394602331
7.6929037208109	0.98761308125708
7.6791100922131	0.98761222890527
7.6653658399386	0.98761138898925
7.6516706993364	0.98761056152864
7.6380244076433	0.98760974654133
7.6244267039674	0.98760894404346
7.6108773292714	0.98760815404949
7.5973760263558	0.98760737657218
7.5839225398432	0.98760661162260
7.5705166161616	0.98760585921016
7.5571580035291	0.98760511934261
7.5438464519376	0.98760439202608
7.5305817131374	0.98760367726506
7.5173635406219	0.98760297506244
7.5041916896120	0.98760228541951
7.4910659170415	0.98760160833598
7.4779859815415	0.98760094381001
7.4649516434263	0.98760029183819
7.4519626646781	0.98759965241558
7.4390188089330	0.98759902553572
7.4261198414664	0.98759841119062
7.4132655291790	0.98759780937083
7.4004556405826	0.98759722006540
7.3876899457861	0.98759664326190
7.3749682164822	0.98759607894648
7.3622902259332	0.98759552710383
7.3496557489581	0.98759498771722
7.3370645619187	0.98759446076852
7.3245164427071	0.98759394623817
7.3120111707317	0.98759344410528
7.2995485269053	0.98759295434754
7.2871282936315	0.98759247694133
7.2747502547925	0.98759201186166
7.2624141957364	0.98759155908222
7.2501199032648	0.98759111857541
7.2378671656205	0.98759069031229
7.2256557724753	0.98759027426267
7.2134855149182	0.98758987039508
7.2013561854432	0.98758947867679
7.1892675779376	0.98758909907382
7.1772194876706	0.98758873155097
7.1652117112811	0.98758837607182
7.1532440467669	0.98758803259876
7.1413162934731	0.98758770109297
7.1294282520809	0.98758738151446
7.1175797245964	0.98758707382211
7.1057705143399	0.98758677797360
7.0940004259347	0.98758649392552
7.0822692652965	0.98758622163331
7.0705768396226	0.98758596105133
7.0589229573817	0.98758571213283
7.0473074283028	0.98758547482996
7.0357300633654	0.98758524909386
7.0241906747891	0.98758503487455
7.0126890760234	0.98758483212106
7.0012250817375	0.98758464078136
6.9897985078107	0.98758446080244
6.9784091713222	0.98758429213026
6.9670568905415	0.98758413470980
6.9557414849188	0.98758398848508
6.9444627750753	0.98758385339915
6.9332205827937	0.98758372939411
6.9220147310090	0.98758361641113
6.9108450437990	0.98758351439045
6.8997113463751	0.98758342327142
6.8886134650735	0.98758334299247
6.8775512273457	0.98758327349117
6.8665244617499	0.98758321470422
6.8555329979419	0.98758316656745
6.8445766666667	0.98758312901584
6.8336552997493	0.98758310198357
6.8227687300865	0.98758308540398
6.8119167916383	0.98758307920960
6.8010993194192	0.98758308333219
6.7903161494904	0.98758309770271
6.7795671189507	0.98758312225136
6.7688520659291	0.98758315690759
6.7581708295762	0.98758320160009
6.7475232500563	0.98758325625686
6.7369091685393	0.98758332080514
6.7263284271932	0.98758339517149
6.7157808691756	0.98758347928178
6.7052663386267	0.98758357306118
6.6947846806610	0.98758367643422
6.6843357413601	0.98758378932475
6.6739193677649	0.98758391165600
6.6635354078684	0.98758404335056
6.6531837106081	0.98758418433039
6.6428641258586	0.98758433451687
6.6325765044248	0.98758449383077
6.6223206980340	0.98758466219228
6.6120965593295	0.98758483952103
6.6019039418630	0.98758502573607
6.5917427000879	0.98758522075593
6.5816126893524	0.98758542449860
6.5715137658922	0.98758563688155
6.5614457868243	0.98758585782172
6.5514086101399	0.98758608723558
6.5414020946978	0.98758632503910
6.5314261002179	0.98758657114778
6.5214804872743	0.98758682547665
6.5115651172893	0.98758708794031
6.5016798525266	0.98758735845289
6.4918245560849	0.98758763692812
6.4819990918919	0.98758792327929
6.4722033246978	0.98758821741932
6.4624371200690	0.98758851926069
6.4527003443823	0.98758882871554
6.4429928648184	0.98758914569562
6.4333145493562	0.98758947011232
6.4236652667667	0.98758980187669
6.4140448866068	0.98759014089944
6.4044532792138	0.98759048709095
6.3948903156997	0.98759084036129
6.3853558679446	0.98759120062023
6.3758498085921	0.98759156777724
6.3663720110427	0.98759194174153
6.3569223494487	0.98759232242201
6.3475006987084	0.98759270972734
6.3381069344609	0.98759310356595
6.3287409330800	0.98759350384601
6.3194025716695	0.98759391047547
6.3100917280572	0.98759432336208
6.3008082807902	0.98759474241336
6.2915521091291	0.98759516753664
6.2823230930427	0.98759559863909
6.2731211132036	0.98759603562768
6.2639460509820	0.98759647840922
6.2547977884415	0.98759692689038
6.2456762083333	0.98759738097768
6.2365811940919	0.98759784057751
6.2275126298297	0.98759830559613
6.2184704003319	0.98759877593970
6.2094543910522	0.98759925151428
6.2004644881075	0.98759973222583
6.1915005782734	0.98760021798024
6.1825625489792	0.98760070868331
6.1736502883031	0.98760120424080
6.1647636849681	0.98760170455840
6.1559026283368	0.98760220954179
6.1470670084068	0.98760271909658
6.1382567158067	0.98760323312838
6.1294716417910	0.98760375154280
6.1207116782360	0.98760427424542
6.1119767176351	0.98760480114184
6.1032666530945	0.98760533213769
6.0945813783289	0.98760586713860
6.0859207876573	0.98760640605027
6.0772847759984	0.98760694877843
6.0686732388664	0.98760749522884
6.0600860723671	0.98760804530737
6.0515231731934	0.98760859891994
6.0429844386212	0.98760915597254
6.0344697665056	0.98760971637129
6.0259790552764	0.98761028002237
6.0175122039342	0.98761084683209
6.0090691120465	0.98761141670689
6.0006496797438	0.98761198955333
5.9922538077154	0.98761256527809
5.9838813972056	0.98761314378801
5.9755323500100	0.98761372499010
5.9672065684713	0.98761430879152
5.9589039554760	0.98761489509959
5.9506244144502	0.98761548382183
5.9423678493558	0.98761607486594
5.9341341646873	0.98761666813982
5.9259232654675	0.98761726355159
5.9177350572444	0.98761786100956
5.9095694460871	0.98761846042228
5.9014263385827	0.98761906169854
5.8933056418321	0.98761966474733
5.8852072634472	0.98762026947795
5.8771311115468	0.98762087579990
5.8690770947533	0.98762148362297
5.8610451221896	0.98762209285723
5.8530351034752	0.98762270341302
5.8450469487229	0.98762331520096
5.8370805685358	0.98762392813198
5.8291358740035	0.98762454211730
5.8212127766990	0.98762515706848
5.8133111886756	0.98762577289736
5.8054310224632	0.98762638951614
5.7975721910656	0.98762700683734
5.7897346079567	0.98762762477381
5.7819181870781	0.98762824323879
5.7741228428351	0.98762886214583
5.7663484900942	0.98762948140886
5.7585950441798	0.98763010094221
5.7508624208709	0.98763072066055
5.7431505363985	0.98763134047895
5.7354593074421	0.98763196031288
5.7277886511272	0.98763258007820
5.7201384850219	0.98763319969118
5.7125087271341	0.98763381906851
5.7048992959087	0.98763443812730
5.6973101102242	0.98763505678507
5.6897410893908	0.98763567495980
5.6821921531463	0.98763629256990
5.6746632216544	0.98763690953422
5.6671542155009	0.98763752577208
5.6596650556919	0.98763814120324
5.6521956636501	0.98763875574795
5.6447459612126	0.98763936932692
5.6373158706281	0.98763998186134
5.6299053145540	0.98764059327289
5.6225142160540	0.98764120348374
5.6151424985952	0.98764181241657
5.6077900860456	0.98764241999454
5.6004569026714	0.98764302614134
5.5931428731343	0.98764363078118
5.5858479224893	0.98764423383877
5.5785719761816	0.98764483523938
5.5713149600446	0.98764543490878
5.5640768002970	0.98764603277330
5.5568574235403	0.98764662875981
5.5496567567568	0.98764722279575
5.5424747273063	0.98764781480907
5.5353112629247	0.98764840472833
5.5281662917204	0.98764899248263
5.5210397421731	0.98764957800166
5.5139315431304	0.98765016121567
5.5068416238060	0.98765074205550
5.4997699137773	0.98765132045259
5.4927163429828	0.98765189633895
5.4856808417200	0.98765246964721
5.4786633406433	0.98765304031060
5.4716637707611	0.98765360826294
5.4646820634342	0.98765417343869
5.4577181503732	0.98765473577290
5.4507719636364	0.98765529520127
5.4438434356274	0.98765585166010
5.4369324990932	0.98765640508635
5.4300390871219	0.98765695541759
5.4231631331404	0.98765750259205
5.4163045709124	0.98765804654858
5.4094633345363	0.98765858722672
5.4026393584430	0.98765912456663
5.3958325773938	0.98765965850913
5.3890429264785	0.98766018899573
5.3822703411131	0.98766071596856
5.3755147570378	0.98766123937046
5.3687761103152	0.98766175914493
5.3620543373278	0.98766227523614
5.3553493747767	0.98766278758895
5.3486611596789	0.98766329614891
5.3419896293656	0.98766380086225
5.3353347214807	0.98766430167590
5.3286963739780	0.98766479853747
5.3220745251198	0.98766529139529
5.3154691134752	0.98766578019837
5.3088800779175	0.98766626489646
5.3023073576229	0.98766674543999
5.2957508920685	0.98766722178011
5.2892106210303	0.98766769386869
5.2826864845815	0.98766816165832
5.2761784230905	0.98766862510231
5.2696863772192	0.98766908415469
5.2632102879213	0.98766953877022
5.2567500964405	0.98766998890440
5.2503057443082	0.98767043451345
5.2438771733427	0.98767087555434
5.2374643256464	0.98767131198477
5.2310671436050	0.98767174376317
5.2246855698850	0.98767217084874
5.2183195474326	0.98767259320140
5.2119690194715	0.98767301078184
5.2056339295016	0.98767342355149
5.1993142212973	0.98767383147253
5.1930098389052	0.98767423450791
5.1867207266436	0.98767463262131
5.1804468290997	0.98767502577720
5.1741880911288	0.98767541394080
5.1679444578521	0.98767579707808
5.1617158746556	0.98767617515579
5.1555022871883	0.98767654814144
5.1493036413604	0.98767691600331
5.1431198833419	0.98767727871046
5.1369509595613	0.98767763623270
5.1307968167037	0.98767798854064
5.1246574017094	0.98767833560564
5.1185326617722	0.98767867739984
5.1124225443383	0.98767901389618
5.1063269971044	0.98767934506835
5.1002459680163	0.98767967089083
5.0941794052676	0.98767999133889
5.0881272572980	0.98768030638856
5.0820894727920	0.98768061601668
5.0760660006773	0.98768092020085
5.0700567901235	0.98768121891946
5.0640617905405	0.98768151215170
5.0580809515775	0.98768179987754
5.0521142231210	0.98768208207771
5.0461615552937	0.98768235873376
5.0402228984533	0.98768262982801
5.0342982031906	0.98768289534358
5.0283874203287	0.98768315526436
5.0224905009214	0.98768340957506
5.0166073962517	0.98768365826114
5.0107380578305	0.98768390130887
5.0048824373957	0.98768413870530
4.9990404869101	0.98768437043830
4.9932121585610	0.98768459649648
4.9873974047579	0.98768481686927
4.9815961781323	0.98768503154688
4.9758084315353	0.98768524052031
4.9700341180371	0.98768544378135
4.9642731909256	0.98768564132258
4.9585256037049	0.98768583313735
4.9527913100942	0.98768601921982
4.9470702640264	0.98768619956492
4.9413624196473	0.98768637416837
4.9356677313138	0.98768654302667
4.9299861535932	0.98768670613713
4.9243176412615	0.98768686349780
4.9186621493027	0.98768701510755
4.9130196329072	0.98768716096601
4.9073900474709	0.98768730107359
4.9017733485939	0.98768743543149
4.8961694920790	0.98768756404169
4.8905784339315	0.98768768690692
4.8850001303569	0.98768780403073
4.8794345377604	0.98768791541740
4.8738816127459	0.98768802107201
4.8683413121143	0.98768812100039
4.8628135928629	0.98768821520916
4.8572984121841	0.98768830370570
4.8517957274640	0.98768838649816
4.8463054962819	0.98768846359543
4.8408276764088	0.98768853500719
4.8353622258065	0.98768860074388
