#Parameters = {thARC=0.2; nARC=2; thsub=1; p=1; nSub=3.5}
#"Wavelength / um"	"T (566) [Real Part]"
#---------------------------------------
14.989622900000	0.69729152973034
14.937342202292	0.69735517790921
14.885424925521	0.69741833043314
14.833867293419	0.69748099667225
14.782665581854	0.69754318593064
14.731816117936	0.69760490744616
14.681315279138	0.69766617039023
14.631159492435	0.69772698386761
14.581345233463	0.69778735691629
14.531869025691	0.69784729850721
14.482727439614	0.69790681754420
14.433917091960	0.69796592286376
14.385434644914	0.69802462323494
14.337276805356	0.69808292735919
14.289440324118	0.69814084387024
14.241921995249	0.69819838133400
14.194718655303	0.69825554824841
14.147827182633	0.69831235304335
14.101244496707	0.69836880408058
14.054967557431	0.69842490965363
14.008993364486	0.69848067798773
13.963318956684	0.69853611723972
13.917941411328	0.69859123549804
13.872857843591	0.69864604078264
13.828065405904	0.69870054104497
13.783561287356	0.69875474416791
13.739342713107	0.69880865796576
13.695406943810	0.69886229018425
13.651751275046	0.69891564850049
13.608373036768	0.69896874052299
13.565269592760	0.69902157379166
13.522438340099	0.69907415577783
13.479876708633	0.69912649388427
13.437582160466	0.69917859544520
13.395552189455	0.69923046772636
13.353784320713	0.69928211792502
13.312276110124	0.69933355317006
13.271025143869	0.69938478052202
13.230029037952	0.69943580697314
13.189285437747	0.69948663944746
13.148792017544	0.69953728480089
13.108546480105	0.69958774982132
13.068546556234	0.69963804122866
13.028790004346	0.69968816567498
12.989274610052	0.69973812974460
12.949998185745	0.69978793995422
12.910958570198	0.69983760275302
12.872153628167	0.69988712452278
12.833581250000	0.69993651157804
12.795239351259	0.69998577016621
12.757125872340	0.70003490646773
12.719238778108	0.70008392659621
12.681576057530	0.70013283659858
12.644135723323	0.70018164245528
12.606915811606	0.70023035008039
12.569914381551	0.70027896532183
12.533129515050	0.70032749396152
12.496559316382	0.70037594171558
12.460201911887	0.70042431423450
12.424055449648	0.70047261710337
12.388118099174	0.70052085584203
12.352388051092	0.70056903590531
12.316863516845	0.70061716268324
12.281542728390	0.70066524150124
12.246423937908	0.70071327762037
12.211505417515	0.70076127623753
12.176785458976	0.70080924248572
12.142262373431	0.70085718143422
12.107934491115	0.70090509808891
12.073800161095	0.70095299739244
12.039857751004	0.70100088422450
12.006105646776	0.70104876340211
11.972542252396	0.70109663967982
11.939165989646	0.70114451774998
11.905975297855	0.70119240224308
11.872968633663	0.70124029772791
11.840144470774	0.70128820871190
11.807501299724	0.70133613964138
11.775037627651	0.70138409490187
11.742751978065	0.70143207881835
11.710642890625	0.70148009565556
11.678708920919	0.70152814961829
11.646948640249	0.70157624485167
11.615360635413	0.70162438544148
11.583943508501	0.70167257541445
11.552695876686	0.70172081873853
11.521616372022	0.70176911932329
11.490703641242	0.70181748102012
11.459956345566	0.70186590762263
11.429373160503	0.70191440286694
11.398952775665	0.70196297043198
11.368693894577	0.70201161393987
11.338595234493	0.70206033695617
11.308655526217	0.70210914299029
11.278873513920	0.70215803549577
11.249247954972	0.70220701787064
11.219777619760	0.70225609345775
11.190461291527	0.70230526554512
11.161297766195	0.70235453736625
11.132285852209	0.70240391210053
11.103424370370	0.70245339287351
11.074712153676	0.70250298275732
11.046148047163	0.70255268477098
11.017730907755	0.70260250188078
10.989459604106	0.70265243700061
10.961333016453	0.70270249299233
10.933350036470	0.70275267266616
10.905509567115	0.70280297878099
10.877810522496	0.70285341404480
10.850251827723	0.70290398111496
10.822832418773	0.70295468259867
10.795551242348	0.70300552105329
10.768407255747	0.70305649898671
10.741399426729	0.70310761885774
10.714526733381	0.70315888307645
10.687788163993	0.70321029400460
10.661182716927	0.70326185395599
10.634709400497	0.70331356519681
10.608367232838	0.70336542994606
10.582155241793	0.70341745037593
10.556072464789	0.70346962861216
10.530117948718	0.70352196673441
10.504290749825	0.70357446677671
10.478589933590	0.70362713072777
10.453014574616	0.70367996053142
10.427563756522	0.70373295808695
10.402236571825	0.70378612524955
10.377032121841	0.70383946383065
10.351949516575	0.70389297559836
10.326987874612	0.70394666227779
10.302146323024	0.70400052555153
10.277423997257	0.70405456705996
10.252820041040	0.70410878840169
10.228333606278	0.70416319113392
10.203963852961	0.70421777677288
10.179709949066	0.70427254679417
10.155571070461	0.70432750263319
10.131546400811	0.70438264568552
10.107635131490	0.70443797730730
10.083836461487	0.70449349881565
10.060149597315	0.70454921148906
10.036573752929	0.70460511656777
10.013108149633	0.70466121525417
9.9897520159947	0.70471750871320
9.9665045877660	0.70477399807274
9.9433651077944	0.70483068442400
9.9203328259431	0.70488756882194
9.8974069990096	0.70494465228563
9.8745868906456	0.70500193579864
9.8518717712783	0.70505942030949
9.8292609180328	0.70511710673197
9.8067536146549	0.70517499594558
9.7843491514360	0.70523308879593
9.7620468251384	0.70529138609508
9.7398459389214	0.70534988862198
9.7177458022690	0.70540859712286
9.6957457309185	0.70546751231158
9.6738450467893	0.70552663487008
9.6520430779137	0.70558596544870
9.6303391583681	0.70564550466663
9.6087326282051	0.70570525311228
9.5872228333866	0.70576521134364
9.5658091257179	0.70582537988871
9.5444908627826	0.70588575924586
9.5232674078780	0.70594634988420
9.5021381299525	0.70600715224403
9.4811024035421	0.70606816673713
9.4601596087094	0.70612939374723
9.4393091309824	0.70619083363033
9.4185503612944	0.70625248671512
9.3978826959248	0.70631435330333
9.3773055364404	0.70637643367014
9.3568182896380	0.70643872806452
9.3364203674868	0.70650123670965
9.3161111870727	0.70656395980326
9.2958901705426	0.70662689751801
9.2757567450495	0.70669005000188
9.2557103426984	0.70675341737854
9.2357504004929	0.70681699974769
9.2158763602828	0.70688079718548
9.1960876687117	0.70694480974481
9.1763837771656	0.70700903745578
9.1567641417227	0.70707348032598
9.1372282231027	0.70713813834090
9.1177754866180	0.70720301146428
9.0984054021244	0.70726809963845
9.0791174439733	0.70733340278472
9.0599110909640	0.70739892080373
9.0407858262967	0.70746465357580
9.0217411375263	0.70753060096128
9.0027765165165	0.70759676280091
8.9838914593947	0.70766313891618
8.9650854665072	0.70772972910966
8.9463580423754	0.70779653316538
8.9277086956522	0.70786355084913
8.9091369390788	0.70793078190885
8.8906422894425	0.70799822607494
8.8722242675348	0.70806588306064
8.8538823981099	0.70813375256231
8.8356162098438	0.70820183425984
8.8174252352941	0.70827012781692
8.7993090108600	0.70833863288141
8.7812670767428	0.70840734908569
8.7632989769073	0.70847627604693
8.7454042590432	0.70854541336747
8.7275824745269	0.70861476063514
8.7098331783847	0.70868431742356
8.6921559292549	0.70875408329249
8.6745502893519	0.70882405778813
8.6570158244297	0.70889424044345
8.6395521037464	0.70896463077851
8.6221587000288	0.70903522830075
8.6048351894374	0.70910603250535
8.5875811515325	0.70917704287548
8.5703961692396	0.70924825888267
8.5532798288160	0.70931967998707
8.5362317198178	0.70939130563776
8.5192514350668	0.70946313527308
8.5023385706183	0.70953516832090
8.4854927257288	0.70960740419895
8.4687135028249	0.70967984231506
8.4520005074711	0.70975248206753
8.4353533483399	0.70982532284533
8.4187716371806	0.70989836402849
8.4022549887892	0.70997160498829
8.3858030209790	0.71004504508762
8.3694153545505	0.71011868368121
8.3530916132627	0.71019252011595
8.3368314238042	0.71026655373113
8.3206344157646	0.71034078385874
8.3045002216066	0.71041520982374
8.2884284766381	0.71048983094432
8.2724188189845	0.71056464653217
8.2564708895621	0.71063965589276
8.2405843320506	0.71071485832559
8.2247587928669	0.71079025312445
8.2089939211391	0.71086583957769
8.1932893686800	0.71094161696846
8.1776447899618	0.71101758457499
8.1620598420909	0.71109374167081
8.1465341847826	0.71117008752501
8.1310674803363	0.71124662140249
8.1156593936113	0.71132334256422
8.1003095920022	0.71140025026745
8.0850177454153	0.71147734376598
8.0697835262450	0.71155462231036
8.0546066093498	0.71163208514815
8.0394866720300	0.71170973152417
8.0244233940043	0.71178756068067
8.0094164573871	0.71186557185763
7.9944655466667	0.71194376429293
7.9795703486825	0.71202213722258
7.9647305526036	0.71210068988095
7.9499458499072	0.71217942150102
7.9352159343568	0.71225833131450
7.9205405019815	0.71233741855216
7.9059192510549	0.71241668244394
7.8913518820742	0.71249612221921
7.8768380977404	0.71257573710696
7.8623776029373	0.71265552633600
7.8479701047120	0.71273548913517
7.8336153122550	0.71281562473352
7.8193129368805	0.71289593236051
7.8050626920073	0.71297641124621
7.7908642931393	0.71305706062147
7.7767174578470	0.71313787971813
7.7626219057483	0.71321886776918
7.7485773584906	0.71330002400896
7.7345835397317	0.71338134767333
7.7206401751223	0.71346283799986
7.7067469922879	0.71354449422795
7.6929037208109	0.71362631559909
7.6791100922131	0.71370830135694
7.6653658399386	0.71379045074757
7.6516706993364	0.71387276301956
7.6380244076433	0.71395523742420
7.6244267039674	0.71403787321563
7.6108773292714	0.71412066965102
7.5973760263558	0.71420362599069
7.5839225398432	0.71428674149828
7.5705166161616	0.71437001544089
7.5571580035291	0.71445344708923
7.5438464519376	0.71453703571777
7.5305817131374	0.71462078060486
7.5173635406219	0.71470468103288
7.5041916896120	0.71478873628839
7.4910659170415	0.71487294566222
7.4779859815415	0.71495730844966
7.4649516434263	0.71504182395052
7.4519626646781	0.71512649146931
7.4390188089330	0.71521131031535
7.4261198414664	0.71529627980285
7.4132655291790	0.71538139925109
7.4004556405826	0.71546666798449
7.3876899457861	0.71555208533274
7.3749682164822	0.71563765063091
7.3622902259332	0.71572336321955
7.3496557489581	0.71580922244479
7.3370645619187	0.71589522765847
7.3245164427071	0.71598137821822
7.3120111707317	0.71606767348754
7.2995485269053	0.71615411283593
7.2871282936315	0.71624069563898
7.2747502547925	0.71632742127841
7.2624141957364	0.71641428914223
7.2501199032648	0.71650129862478
7.2378671656205	0.71658844912682
7.2256557724753	0.71667574005563
7.2134855149182	0.71676317082505
7.2013561854432	0.71685074085559
7.1892675779376	0.71693844957450
7.1772194876706	0.71702629641582
7.1652117112811	0.71711428082048
7.1532440467669	0.71720240223633
7.1413162934731	0.71729066011824
7.1294282520809	0.71737905392814
7.1175797245964	0.71746758313507
7.1057705143399	0.71755624721528
7.0940004259347	0.71764504565223
7.0822692652965	0.71773397793669
7.0705768396226	0.71782304356675
7.0589229573817	0.71791224204791
7.0473074283028	0.71800157289309
7.0357300633654	0.71809103562269
7.0241906747891	0.71818062976464
7.0126890760234	0.71827035485441
7.0012250817375	0.71836021043509
6.9897985078107	0.71845019605737
6.9784091713222	0.71854031127963
6.9670568905415	0.71863055566793
6.9557414849188	0.71872092879607
6.9444627750753	0.71881143024557
6.9332205827937	0.71890205960576
6.9220147310090	0.71899281647373
6.9108450437990	0.71908370045440
6.8997113463751	0.71917471116054
6.8886134650735	0.71926584821275
6.8775512273457	0.71935711123950
6.8665244617499	0.71944849987712
6.8555329979419	0.71954001376987
6.8445766666667	0.71963165256985
6.8336552997493	0.71972341593709
6.8227687300865	0.71981530353952
6.8119167916383	0.71990731505298
6.8010993194192	0.71999945016120
6.7903161494904	0.72009170855583
6.7795671189507	0.72018408993641
6.7688520659291	0.72027659401039
6.7581708295762	0.72036922049308
6.7475232500563	0.72046196910770
6.7369091685393	0.72055483958531
6.7263284271932	0.72064783166485
6.7157808691756	0.72074094509309
6.7052663386267	0.72083417962461
6.6947846806610	0.72092753502182
6.6843357413601	0.72102101105490
6.6739193677649	0.72111460750179
6.6635354078684	0.72120832414818
6.6531837106081	0.72130216078748
6.6428641258586	0.72139611722078
6.6325765044248	0.72149019325683
6.6223206980340	0.72158438871203
6.6120965593295	0.72167870341034
6.6019039418630	0.72177313718333
6.5917427000879	0.72186768987008
6.5816126893524	0.72196236131716
6.5715137658922	0.72205715137861
6.5614457868243	0.72215205991589
6.5514086101399	0.72224708679782
6.5414020946978	0.72234223190057
6.5314261002179	0.72243749510759
6.5214804872743	0.72253287630961
6.5115651172893	0.72262837540451
6.5016798525266	0.72272399229735
6.4918245560849	0.72281972690030
6.4819990918919	0.72291557913256
6.4722033246978	0.72301154892035
6.4624371200690	0.72310763619682
6.4527003443823	0.72320384090202
6.4429928648184	0.72330016298284
6.4333145493562	0.72339660239293
6.4236652667667	0.72349315909269
6.4140448866068	0.72358983304916
6.4044532792138	0.72368662423598
6.3948903156997	0.72378353263333
6.3853558679446	0.72388055822788
6.3758498085921	0.72397770101268
6.3663720110427	0.72407496098716
6.3569223494487	0.72417233815700
6.3475006987084	0.72426983253411
6.3381069344609	0.72436744413653
6.3287409330800	0.72446517298838
6.3194025716695	0.72456301911977
6.3100917280572	0.72466098256676
6.3008082807902	0.72475906337126
6.2915521091291	0.72485726158095
6.2823230930427	0.72495557724924
6.2731211132036	0.72505401043517
6.2639460509820	0.72515256120332
6.2547977884415	0.72525122962379
6.2456762083333	0.72535001577204
6.2365811940919	0.72544891972889
6.2275126298297	0.72554794158037
6.2184704003319	0.72564708141771
6.2094543910522	0.72574633933719
6.2004644881075	0.72584571544013
6.1915005782734	0.72594520983274
6.1825625489792	0.72604482262606
6.1736502883031	0.72614455393592
6.1647636849681	0.72624440388278
6.1559026283368	0.72634437259170
6.1470670084068	0.72644446019224
6.1382567158067	0.72654466681835
6.1294716417910	0.72664499260833
6.1207116782360	0.72674543770471
6.1119767176351	0.72684600225414
6.1032666530945	0.72694668640737
6.0945813783289	0.72704749031910
6.0859207876573	0.72714841414792
6.0772847759984	0.72724945805619
6.0686732388664	0.72735062221001
6.0600860723671	0.72745190677905
6.0515231731934	0.72755331193653
6.0429844386212	0.72765483785909
6.0344697665056	0.72775648472670
6.0259790552764	0.72785825272258
6.0175122039342	0.72796014203311
6.0090691120465	0.72806215284771
6.0006496797438	0.72816428535881
5.9922538077154	0.72826653976166
5.9838813972056	0.72836891625432
5.9755323500100	0.72847141503756
5.9672065684713	0.72857403631469
5.9589039554760	0.72867678029158
5.9506244144502	0.72877964717647
5.9423678493558	0.72888263717993
5.9341341646873	0.72898575051473
5.9259232654675	0.72908898739580
5.9177350572444	0.72919234804006
5.9095694460871	0.72929583266640
5.9014263385827	0.72939944149555
5.8933056418321	0.72950317474998
5.8852072634472	0.72960703265381
5.8771311115468	0.72971101543273
5.8690770947533	0.72981512331392
5.8610451221896	0.72991935652589
5.8530351034752	0.73002371529846
5.8450469487229	0.73012819986264
5.8370805685358	0.73023281045052
5.8291358740035	0.73033754729519
5.8212127766990	0.73044241063067
5.8133111886756	0.73054740069176
5.8054310224632	0.73065251771402
5.7975721910656	0.73075776193362
5.7897346079567	0.73086313358727
5.7819181870781	0.73096863291213
5.7741228428351	0.73107426014571
5.7663484900942	0.73118001552580
5.7585950441798	0.73128589929036
5.7508624208709	0.73139191167741
5.7431505363985	0.73149805292500
5.7354593074421	0.73160432327107
5.7277886511272	0.73171072295336
5.7201384850219	0.73181725220937
5.7125087271341	0.73192391127620
5.7048992959087	0.73203070039053
5.6973101102242	0.73213761978851
5.6897410893908	0.73224466970563
5.6821921531463	0.73235185037670
5.6746632216544	0.73245916203575
5.6671542155009	0.73256660491589
5.6596650556919	0.73267417924929
5.6521956636501	0.73278188526707
5.6447459612126	0.73288972319923
5.6373158706281	0.73299769327454
5.6299053145540	0.73310579572047
5.6225142160540	0.73321403076313
5.6151424985952	0.73332239862716
5.6077900860456	0.73343089953568
5.6004569026714	0.73353953371017
5.5931428731343	0.73364830137042
5.5858479224893	0.73375720273447
5.5785719761816	0.73386623801848
5.5713149600446	0.73397540743669
5.5640768002970	0.73408471120135
5.5568574235403	0.73419414952263
5.5496567567568	0.73430372260853
5.5424747273063	0.73441343066486
5.5353112629247	0.73452327389511
5.5281662917204	0.73463325250039
5.5210397421731	0.73474336667941
5.5139315431304	0.73485361662834
5.5068416238060	0.73496400254079
5.4997699137773	0.73507452460772
5.4927163429828	0.73518518301736
5.4856808417200	0.73529597795520
5.4786633406433	0.73540690960387
5.4716637707611	0.73551797814307
5.4646820634342	0.73562918374956
5.4577181503732	0.73574052659705
5.4507719636364	0.73585200685618
5.4438434356274	0.73596362469440
5.4369324990932	0.73607538027597
5.4300390871219	0.73618727376188
5.4231631331404	0.73629930530978
5.4163045709124	0.73641147507394
5.4094633345363	0.73652378320519
5.4026393584430	0.73663622985087
5.3958325773938	0.73674881515476
5.3890429264785	0.73686153925705
5.3822703411131	0.73697440229429
5.3755147570378	0.73708740439930
5.3687761103152	0.73720054570119
5.3620543373278	0.73731382632525
5.3553493747767	0.73742724639293
5.3486611596789	0.73754080602180
5.3419896293656	0.73765450532549
5.3353347214807	0.73776834441367
5.3286963739780	0.73788232339197
5.3220745251198	0.73799644236200
5.3154691134752	0.73811070142124
5.3088800779175	0.73822510066304
5.3023073576229	0.73833964017660
5.2957508920685	0.73845432004689
5.2892106210303	0.73856914035466
5.2826864845815	0.73868410117637
5.2761784230905	0.73879920258416
5.2696863772192	0.73891444464587
5.2632102879213	0.73902982742493
5.2567500964405	0.73914535098040
5.2503057443082	0.73926101536691
5.2438771733427	0.73937682063464
5.2374643256464	0.73949276682929
5.2310671436050	0.73960885399206
5.2246855698850	0.73972508215965
5.2183195474326	0.73984145136419
5.2119690194715	0.73995796163326
5.2056339295016	0.74007461298987
5.1993142212973	0.74019140545243
5.1930098389052	0.74030833903472
5.1867207266436	0.74042541374590
5.1804468290997	0.74054262959051
5.1741880911288	0.74065998656841
5.1679444578521	0.74077748467481
5.1617158746556	0.74089512390024
5.1555022871883	0.74101290423055
5.1493036413604	0.74113082564691
5.1431198833419	0.74124888812578
5.1369509595613	0.74136709163893
5.1307968167037	0.74148543615344
5.1246574017094	0.74160392163165
5.1185326617722	0.74172254803125
5.1124225443383	0.74184131530518
5.1063269971044	0.74196022340171
5.1002459680163	0.74207927226438
5.0941794052676	0.74219846183208
5.0881272572980	0.74231779203897
5.0820894727920	0.74243726281457
5.0760660006773	0.74255687408371
5.0700567901235	0.74267662576654
5.0640617905405	0.74279651777860
5.0580809515775	0.74291655003076
5.0521142231210	0.74303672242930
5.0461615552937	0.74315703487585
5.0402228984533	0.74327748726748
5.0342982031906	0.74339807949668
5.0283874203287	0.74351881145137
5.0224905009214	0.74363968301496
5.0166073962517	0.74376069406631
5.0107380578305	0.74388184447983
5.0048824373957	0.74400313412544
4.9990404869101	0.74412456286860
4.9932121585610	0.74424613057041
4.9873974047579	0.74436783708752
4.9815961781323	0.74448968227225
4.9758084315353	0.74461166597261
4.9700341180371	0.74473378803227
4.9642731909256	0.74485604829068
4.9585256037049	0.74497844658301
4.9527913100942	0.74510098274029
4.9470702640264	0.74522365658934
4.9413624196473	0.74534646795288
4.9356677313138	0.74546941664955
4.9299861535932	0.74559250249395
4.9243176412615	0.74571572529666
4.9186621493027	0.74583908486431
4.9130196329072	0.74596258099961
4.9073900474709	0.74608621350140
4.9017733485939	0.74620998216469
4.8961694920790	0.74633388678070
4.8905784339315	0.74645792713695
4.8850001303569	0.74658210301724
4.8794345377604	0.74670641420175
4.8738816127459	0.74683086046708
4.8683413121143	0.74695544158631
4.8628135928629	0.74708015732901
4.8572984121841	0.74720500746136
4.8517957274640	0.74732999174617
4.8463054962819	0.74745510994291
4.8408276764088	0.74758036180784
4.8353622258065	0.74770574709400
