#Parameters = {thARC=0; nARC=2; thsub=1; p=1; nSub=3.5}
#"Wavelength / um"	"T (565) [Real Part]"
#---------------------------------------
14.989622900000	0.69135810478021
14.937342202292	0.69136885539267
14.885424925521	0.69137927502452
14.833867293419	0.69138936889860
14.782665581854	0.69139914219347
14.731816117936	0.69140860004352
14.681315279138	0.69141774753899
14.631159492435	0.69142658972597
14.581345233463	0.69143513160654
14.531869025691	0.69144337813871
14.482727439614	0.69145133423656
14.433917091960	0.69145900477028
14.385434644914	0.69146639456619
14.337276805356	0.69147350840685
14.289440324118	0.69148035103112
14.241921995249	0.69148692713423
14.194718655303	0.69149324136785
14.147827182633	0.69149929834017
14.101244496707	0.69150510261599
14.054967557431	0.69151065871681
14.008993364486	0.69151597112090
13.963318956684	0.69152104426343
13.917941411328	0.69152588253653
13.872857843591	0.69153049028940
13.828065405904	0.69153487182842
13.783561287356	0.69153903141725
13.739342713107	0.69154297327694
13.695406943810	0.69154670158604
13.651751275046	0.69155022048073
13.608373036768	0.69155353405491
13.565269592760	0.69155664636034
13.522438340099	0.69155956140676
13.479876708633	0.69156228316201
13.437582160466	0.69156481555217
13.395552189455	0.69156716246170
13.353784320713	0.69156932773353
13.312276110124	0.69157131516925
13.271025143869	0.69157312852923
13.230029037952	0.69157477153275
13.189285437747	0.69157624785815
13.148792017544	0.69157756114300
13.108546480105	0.69157871498422
13.068546556234	0.69157971293826
13.028790004346	0.69158055852121
12.989274610052	0.69158125520902
12.949998185745	0.69158180643761
12.910958570198	0.69158221560304
12.872153628167	0.69158248606169
12.833581250000	0.69158262113042
12.795239351259	0.69158262408674
12.757125872340	0.69158249816895
12.719238778108	0.69158224657636
12.681576057530	0.69158187246943
12.644135723323	0.69158137896998
12.606915811606	0.69158076916131
12.569914381551	0.69158004608843
12.533129515050	0.69157921275826
12.496559316382	0.69157827213972
12.460201911887	0.69157722716403
12.424055449648	0.69157608072482
12.388118099174	0.69157483567836
12.352388051092	0.69157349484370
12.316863516845	0.69157206100293
12.281542728390	0.69157053690133
12.246423937908	0.69156892524757
12.211505417515	0.69156722871392
12.176785458976	0.69156544993644
12.142262373431	0.69156359151519
12.107934491115	0.69156165601439
12.073800161095	0.69155964596271
12.039857751004	0.69155756385337
12.006105646776	0.69155541214442
11.972542252396	0.69155319325891
11.939165989646	0.69155090958514
11.905975297855	0.69154856347681
11.872968633663	0.69154615725327
11.840144470774	0.69154369319973
11.807501299724	0.69154117356744
11.775037627651	0.69153860057397
11.742751978065	0.69153597640336
11.710642890625	0.69153330320635
11.678708920919	0.69153058310064
11.646948640249	0.69152781817104
11.615360635413	0.69152501046976
11.583943508501	0.69152216201656
11.552695876686	0.69151927479903
11.521616372022	0.69151635077278
11.490703641242	0.69151339186167
11.459956345566	0.69151039995803
11.429373160503	0.69150737692289
11.398952775665	0.69150432458619
11.368693894577	0.69150124474705
11.338595234493	0.69149813917391
11.308655526217	0.69149500960487
11.278873513920	0.69149185774780
11.249247954972	0.69148868528067
11.219777619760	0.69148549385171
11.190461291527	0.69148228507966
11.161297766195	0.69147906055402
11.132285852209	0.69147582183524
11.103424370370	0.69147257045499
11.074712153676	0.69146930791637
11.046148047163	0.69146603569413
11.017730907755	0.69146275523493
10.989459604106	0.69145946795755
10.961333016453	0.69145617525314
10.933350036470	0.69145287848543
10.905509567115	0.69144957899097
10.877810522496	0.69144627807939
10.850251827723	0.69144297703359
10.822832418773	0.69143967711001
10.795551242348	0.69143637953882
10.768407255747	0.69143308552423
10.741399426729	0.69142979624462
10.714526733381	0.69142651285286
10.687788163993	0.69142323647651
10.661182716927	0.69141996821804
10.634709400497	0.69141670915511
10.608367232838	0.69141346034075
10.582155241793	0.69141022280362
10.556072464789	0.69140699754824
10.530117948718	0.69140378555524
10.504290749825	0.69140058778156
10.478589933590	0.69139740516071
10.453014574616	0.69139423860300
10.427563756522	0.69139108899576
10.402236571825	0.69138795720359
10.377032121841	0.69138484406857
10.351949516575	0.69138175041052
10.326987874612	0.69137867702722
10.302146323024	0.69137562469461
10.277423997257	0.69137259416709
10.252820041040	0.69136958617770
10.228333606278	0.69136660143836
10.203963852961	0.69136364064009
10.179709949066	0.69136070445329
10.155571070461	0.69135779352791
10.131546400811	0.69135490849370
10.107635131490	0.69135204996046
10.083836461487	0.69134921851823
10.060149597315	0.69134641473756
10.036573752929	0.69134363916971
10.013108149633	0.69134089234687
9.9897520159947	0.69133817478242
9.9665045877660	0.69133548697112
9.9433651077944	0.69133282938937
9.9203328259431	0.69133020249538
9.8974069990096	0.69132760672947
9.8745868906456	0.69132504251424
9.8518717712783	0.69132251025478
9.8292609180328	0.69132001033897
9.8067536146549	0.69131754313759
9.7843491514360	0.69131510900466
9.7620468251384	0.69131270827756
9.7398459389214	0.69131034127731
9.7177458022690	0.69130800830875
9.6957457309185	0.69130570966081
9.6738450467893	0.69130344560665
9.6520430779137	0.69130121640397
9.6303391583681	0.69129902229514
9.6087326282051	0.69129686350747
9.5872228333866	0.69129474025340
9.5658091257179	0.69129265273071
9.5444908627826	0.69129060112275
9.5232674078780	0.69128858559866
9.5021381299525	0.69128660631352
9.4811024035421	0.69128466340865
9.4601596087094	0.69128275701174
9.4393091309824	0.69128088723711
9.4185503612944	0.69127905418587
9.3978826959248	0.69127725794618
9.3773055364404	0.69127549859342
9.3568182896380	0.69127377619040
9.3364203674868	0.69127209078756
9.3161111870727	0.69127044242318
9.2958901705426	0.69126883112359
9.2757567450495	0.69126725690335
9.2557103426984	0.69126571976545
9.2357504004929	0.69126421970154
9.2158763602828	0.69126275669207
9.1960876687117	0.69126133070655
9.1763837771656	0.69125994170369
9.1567641417227	0.69125858963164
9.1372282231027	0.69125727442815
9.1177754866180	0.69125599602076
9.0984054021244	0.69125475432703
9.0791174439733	0.69125354925469
9.0599110909640	0.69125238070184
9.0407858262967	0.69125124855713
9.0217411375263	0.69125015269996
9.0027765165165	0.69124909300069
8.9838914593947	0.69124806932074
8.9650854665072	0.69124708151286
8.9463580423754	0.69124612942127
8.9277086956522	0.69124521288185
8.9091369390788	0.69124433172231
8.8906422894425	0.69124348576239
8.8722242675348	0.69124267481400
8.8538823981099	0.69124189868143
8.8356162098438	0.69124115716150
8.8174252352941	0.69124045004377
8.7993090108600	0.69123977711066
8.7812670767428	0.69123913813765
8.7632989769073	0.69123853289345
8.7454042590432	0.69123796114018
8.7275824745269	0.69123742263348
8.7098331783847	0.69123691712276
8.6921559292549	0.69123644435129
8.6745502893519	0.69123600405641
8.6570158244297	0.69123559596966
8.6395521037464	0.69123521981697
8.6221587000288	0.69123487531880
8.6048351894374	0.69123456219030
8.5875811515325	0.69123428014146
8.5703961692396	0.69123402887729
8.5532798288160	0.69123380809795
8.5362317198178	0.69123361749890
8.5192514350668	0.69123345677108
8.5023385706183	0.69123332560103
8.4854927257288	0.69123322367105
8.4687135028249	0.69123315065934
8.4520005074711	0.69123310624018
8.4353533483399	0.69123309008401
8.4187716371806	0.69123310185763
8.4022549887892	0.69123314122432
8.3858030209790	0.69123320784399
8.3694153545505	0.69123330137330
8.3530916132627	0.69123342146581
8.3368314238042	0.69123356777212
8.3206344157646	0.69123373993999
8.3045002216066	0.69123393761451
8.2884284766381	0.69123416043818
8.2724188189845	0.69123440805109
8.2564708895621	0.69123468009099
8.2405843320506	0.69123497619350
8.2247587928669	0.69123529599217
8.2089939211391	0.69123563911861
8.1932893686800	0.69123600520267
8.1776447899618	0.69123639387249
8.1620598420909	0.69123680475468
8.1465341847826	0.69123723747440
8.1310674803363	0.69123769165549
8.1156593936113	0.69123816692060
8.1003095920022	0.69123866289129
8.0850177454153	0.69123917918816
8.0697835262450	0.69123971543094
8.0546066093498	0.69124027123862
8.0394866720300	0.69124084622957
8.0244233940043	0.69124144002161
8.0094164573871	0.69124205223215
7.9944655466667	0.69124268247829
7.9795703486825	0.69124333037692
7.9647305526036	0.69124399554482
7.9499458499072	0.69124467759878
7.9352159343568	0.69124537615568
7.9205405019815	0.69124609083258
7.9059192510549	0.69124682124686
7.8913518820742	0.69124756701627
7.8768380977404	0.69124832775906
7.8623776029373	0.69124910309405
7.8479701047120	0.69124989264073
7.8336153122550	0.69125069601936
7.8193129368805	0.69125151285104
7.8050626920073	0.69125234275782
7.7908642931393	0.69125318536276
7.7767174578470	0.69125404029005
7.7626219057483	0.69125490716506
7.7485773584906	0.69125578561444
7.7345835397317	0.69125667526621
7.7206401751223	0.69125757574981
7.7067469922879	0.69125848669622
7.6929037208109	0.69125940773799
7.6791100922131	0.69126033850936
7.6653658399386	0.69126127864630
7.6516706993364	0.69126222778661
7.6380244076433	0.69126318556997
7.6244267039674	0.69126415163803
7.6108773292714	0.69126512563446
7.5973760263558	0.69126610720502
7.5839225398432	0.69126709599766
7.5705166161616	0.69126809166254
7.5571580035291	0.69126909385211
7.5438464519376	0.69127010222118
7.5305817131374	0.69127111642698
7.5173635406219	0.69127213612922
7.5041916896120	0.69127316099013
7.4910659170415	0.69127419067455
7.4779859815415	0.69127522484995
7.4649516434263	0.69127626318652
7.4519626646781	0.69127730535721
7.4390188089330	0.69127835103776
7.4261198414664	0.69127939990679
7.4132655291790	0.69128045164581
7.4004556405826	0.69128150593931
7.3876899457861	0.69128256247477
7.3749682164822	0.69128362094273
7.3622902259332	0.69128468103683
7.3496557489581	0.69128574245385
7.3370645619187	0.69128680489373
7.3245164427071	0.69128786805967
7.3120111707317	0.69128893165812
7.2995485269053	0.69128999539880
7.2871282936315	0.69129105899483
7.2747502547925	0.69129212216266
7.2624141957364	0.69129318462217
7.2501199032648	0.69129424609668
7.2378671656205	0.69129530631299
7.2256557724753	0.69129636500141
7.2134855149182	0.69129742189579
7.2013561854432	0.69129847673355
7.1892675779376	0.69129952925570
7.1772194876706	0.69130057920689
7.1652117112811	0.69130162633541
7.1532440467669	0.69130267039322
7.1413162934731	0.69130371113600
7.1294282520809	0.69130474832312
7.1175797245964	0.69130578171772
7.1057705143399	0.69130681108669
7.0940004259347	0.69130783620071
7.0822692652965	0.69130885683425
7.0705768396226	0.69130987276561
7.0589229573817	0.69131088377690
7.0473074283028	0.69131188965411
7.0357300633654	0.69131289018708
7.0241906747891	0.69131388516952
7.0126890760234	0.69131487439902
7.0012250817375	0.69131585767708
6.9897985078107	0.69131683480912
6.9784091713222	0.69131780560445
6.9670568905415	0.69131876987633
6.9557414849188	0.69131972744192
6.9444627750753	0.69132067812234
6.9332205827937	0.69132162174265
6.9220147310090	0.69132255813185
6.9108450437990	0.69132348712290
6.8997113463751	0.69132440855269
6.8886134650735	0.69132532226208
6.8775512273457	0.69132622809586
6.8665244617499	0.69132712590281
6.8555329979419	0.69132801553562
6.8445766666667	0.69132889685094
6.8336552997493	0.69132976970937
6.8227687300865	0.69133063397545
6.8119167916383	0.69133148951763
6.8010993194192	0.69133233620832
6.7903161494904	0.69133317392383
6.7795671189507	0.69133400254438
6.7688520659291	0.69133482195411
6.7581708295762	0.69133563204104
6.7475232500563	0.69133643269707
6.7369091685393	0.69133722381800
6.7263284271932	0.69133800530346
6.7157808691756	0.69133877705694
6.7052663386267	0.69133953898578
6.6947846806610	0.69134029100110
6.6843357413601	0.69134103301787
6.6739193677649	0.69134176495482
6.6635354078684	0.69134248673447
6.6531837106081	0.69134319828309
6.6428641258586	0.69134389953067
6.6325765044248	0.69134459041095
6.6223206980340	0.69134527086135
6.6120965593295	0.69134594082298
6.6019039418630	0.69134660024058
6.5917427000879	0.69134724906258
6.5816126893524	0.69134788724097
6.5715137658922	0.69134851473137
6.5614457868243	0.69134913149296
6.5514086101399	0.69134973748844
6.5414020946978	0.69135033268406
6.5314261002179	0.69135091704956
6.5214804872743	0.69135149055814
6.5115651172893	0.69135205318645
6.5016798525266	0.69135260491454
6.4918245560849	0.69135314572587
6.4819990918919	0.69135367560724
6.4722033246978	0.69135419454879
6.4624371200690	0.69135470254397
6.4527003443823	0.69135519958948
6.4429928648184	0.69135568568527
6.4333145493562	0.69135616083452
6.4236652667667	0.69135662504356
6.4140448866068	0.69135707832187
6.4044532792138	0.69135752068207
6.3948903156997	0.69135795213984
6.3853558679446	0.69135837271391
6.3758498085921	0.69135878242603
6.3663720110427	0.69135918130094
6.3569223494487	0.69135956936629
6.3475006987084	0.69135994665269
6.3381069344609	0.69136031319359
6.3287409330800	0.69136066902529
6.3194025716695	0.69136101418691
6.3100917280572	0.69136134872030
6.3008082807902	0.69136167267008
6.2915521091291	0.69136198608353
6.2823230930427	0.69136228901061
6.2731211132036	0.69136258150388
6.2639460509820	0.69136286361848
6.2547977884415	0.69136313541211
6.2456762083333	0.69136339694494
6.2365811940919	0.69136364827963
6.2275126298297	0.69136388948124
6.2184704003319	0.69136412061722
6.2094543910522	0.69136434175737
6.2004644881075	0.69136455297377
6.1915005782734	0.69136475434080
6.1825625489792	0.69136494593502
6.1736502883031	0.69136512783519
6.1647636849681	0.69136530012220
6.1559026283368	0.69136546287904
6.1470670084068	0.69136561619076
6.1382567158067	0.69136576014441
6.1294716417910	0.69136589482902
6.1207116782360	0.69136602033555
6.1119767176351	0.69136613675684
6.1032666530945	0.69136624418757
6.0945813783289	0.69136634272424
6.0859207876573	0.69136643246508
6.0772847759984	0.69136651351005
6.0686732388664	0.69136658596079
6.0600860723671	0.69136664992056
6.0515231731934	0.69136670549420
6.0429844386212	0.69136675278809
6.0344697665056	0.69136679191013
6.0259790552764	0.69136682296966
6.0175122039342	0.69136684607743
6.0090691120465	0.69136686134556
6.0006496797438	0.69136686888749
5.9922538077154	0.69136686881797
5.9838813972056	0.69136686125294
5.9755323500100	0.69136684630957
5.9672065684713	0.69136682410616
5.9589039554760	0.69136679476213
5.9506244144502	0.69136675839796
5.9423678493558	0.69136671513514
5.9341341646873	0.69136666509615
5.9259232654675	0.69136660840439
5.9177350572444	0.69136654518414
5.9095694460871	0.69136647556055
5.9014263385827	0.69136639965956
5.8933056418321	0.69136631760786
5.8852072634472	0.69136622953286
5.8771311115468	0.69136613556266
5.8690770947533	0.69136603582597
5.8610451221896	0.69136593045208
5.8530351034752	0.69136581957084
5.8450469487229	0.69136570331260
5.8370805685358	0.69136558180816
5.8291358740035	0.69136545518874
5.8212127766990	0.69136532358594
5.8133111886756	0.69136518713169
5.8054310224632	0.69136504595820
5.7975721910656	0.69136490019794
5.7897346079567	0.69136474998359
5.7819181870781	0.69136459544798
5.7741228428351	0.69136443672407
5.7663484900942	0.69136427394493
5.7585950441798	0.69136410724364
5.7508624208709	0.69136393675330
5.7431505363985	0.69136376260696
5.7354593074421	0.69136358493762
5.7277886511272	0.69136340387813
5.7201384850219	0.69136321956120
5.7125087271341	0.69136303211935
5.7048992959087	0.69136284168487
5.6973101102242	0.69136264838974
5.6897410893908	0.69136245236569
5.6821921531463	0.69136225374404
5.6746632216544	0.69136205265577
5.6671542155009	0.69136184923140
5.6596650556919	0.69136164360102
5.6521956636501	0.69136143589419
5.6447459612126	0.69136122623997
5.6373158706281	0.69136101476683
5.6299053145540	0.69136080160262
5.6225142160540	0.69136058687457
5.6151424985952	0.69136037070922
5.6077900860456	0.69136015323241
5.6004569026714	0.69135993456923
5.5931428731343	0.69135971484397
5.5858479224893	0.69135949418014
5.5785719761816	0.69135927270037
5.5713149600446	0.69135905052643
5.5640768002970	0.69135882777916
5.5568574235403	0.69135860457848
5.5496567567568	0.69135838104331
5.5424747273063	0.69135815729157
5.5353112629247	0.69135793344013
5.5281662917204	0.69135770960482
5.5210397421731	0.69135748590034
5.5139315431304	0.69135726244028
5.5068416238060	0.69135703933705
5.4997699137773	0.69135681670189
5.4927163429828	0.69135659464482
5.4856808417200	0.69135637327462
5.4786633406433	0.69135615269879
5.4716637707611	0.69135593302353
5.4646820634342	0.69135571435373
5.4577181503732	0.69135549679292
5.4507719636364	0.69135528044325
5.4438434356274	0.69135506540547
5.4369324990932	0.69135485177891
5.4300390871219	0.69135463966144
5.4231631331404	0.69135442914947
5.4163045709124	0.69135422033790
5.4094633345363	0.69135401332012
5.4026393584430	0.69135380818795
5.3958325773938	0.69135360503169
5.3890429264785	0.69135340394001
5.3822703411131	0.69135320500001
5.3755147570378	0.69135300829715
5.3687761103152	0.69135281391523
5.3620543373278	0.69135262193641
5.3553493747767	0.69135243244114
5.3486611596789	0.69135224550819
5.3419896293656	0.69135206121461
5.3353347214807	0.69135187963568
5.3286963739780	0.69135170084496
5.3220745251198	0.69135152491424
5.3154691134752	0.69135135191351
5.3088800779175	0.69135118191096
5.3023073576229	0.69135101497297
5.2957508920685	0.69135085116410
5.2892106210303	0.69135069054706
5.2826864845815	0.69135053318269
5.2761784230905	0.69135037912998
5.2696863772192	0.69135022844605
5.2632102879213	0.69135008118611
5.2567500964405	0.69134993740348
5.2503057443082	0.69134979714956
5.2438771733427	0.69134966047384
5.2374643256464	0.69134952742387
5.2310671436050	0.69134939804527
5.2246855698850	0.69134927238171
5.2183195474326	0.69134915047490
5.2119690194715	0.69134903236462
5.2056339295016	0.69134891808863
5.1993142212973	0.69134880768277
5.1930098389052	0.69134870118087
5.1867207266436	0.69134859861479
5.1804468290997	0.69134850001441
5.1741880911288	0.69134840540760
5.1679444578521	0.69134831482026
5.1617158746556	0.69134822827627
5.1555022871883	0.69134814579755
5.1493036413604	0.69134806740399
5.1431198833419	0.69134799311349
5.1369509595613	0.69134792294196
5.1307968167037	0.69134785690329
5.1246574017094	0.69134779500941
5.1185326617722	0.69134773727021
5.1124225443383	0.69134768369362
5.1063269971044	0.69134763428556
5.1002459680163	0.69134758904997
5.0941794052676	0.69134754798881
5.0881272572980	0.69134751110204
5.0820894727920	0.69134747838768
5.0760660006773	0.69134744984174
5.0700567901235	0.69134742545830
5.0640617905405	0.69134740522945
5.0580809515775	0.69134738914536
5.0521142231210	0.69134737719425
5.0461615552937	0.69134736936238
5.0402228984533	0.69134736563412
5.0342982031906	0.69134736599189
5.0283874203287	0.69134737041623
5.0224905009214	0.69134737888578
5.0166073962517	0.69134739137726
5.0107380578305	0.69134740786556
5.0048824373957	0.69134742832368
4.9990404869101	0.69134745272277
4.9932121585610	0.69134748103215
4.9873974047579	0.69134751321931
4.9815961781323	0.69134754924994
4.9758084315353	0.69134758908790
4.9700341180371	0.69134763269531
4.9642731909256	0.69134768003250
4.9585256037049	0.69134773105805
4.9527913100942	0.69134778572881
4.9470702640264	0.69134784399991
4.9413624196473	0.69134790582478
4.9356677313138	0.69134797115517
4.9299861535932	0.69134803994117
4.9243176412615	0.69134811213120
4.9186621493027	0.69134818767208
4.9130196329072	0.69134826650902
4.9073900474709	0.69134834858562
4.9017733485939	0.69134843384395
4.8961694920790	0.69134852222451
4.8905784339315	0.69134861366629
4.8850001303569	0.69134870810676
4.8794345377604	0.69134880548192
4.8738816127459	0.69134890572633
4.8683413121143	0.69134900877310
4.8628135928629	0.69134911455392
4.8572984121841	0.69134922299913
4.8517957274640	0.69134933403767
4.8463054962819	0.69134944759716
4.8408276764088	0.69134956360393
4.8353622258065	0.69134968198300
