#Parameters = {thARC=0.2; nARC=2.5; thsub=1; p=1; nSub=3.5}
#"Wavelength / um"	"T (578) [Real Part]"
#---------------------------------------
14.989622900000	0.69888740674736
14.937342202292	0.69896644245109
14.885424925521	0.69904489389659
14.833867293419	0.69912277205421
14.782665581854	0.69920008782206
14.731816117936	0.69927685202565
14.681315279138	0.69935307541757
14.631159492435	0.69942876867710
14.581345233463	0.69950394240995
14.531869025691	0.69957860714789
14.482727439614	0.69965277334846
14.433917091960	0.69972645139471
14.385434644914	0.69979965159490
14.337276805356	0.69987238418220
14.289440324118	0.69994465931452
14.241921995249	0.70001648707416
14.194718655303	0.70008787746769
14.147827182633	0.70015884042563
14.101244496707	0.70022938580231
14.054967557431	0.70029952337563
14.008993364486	0.70036926284689
13.963318956684	0.70043861384063
13.917941411328	0.70050758590442
13.872857843591	0.70057618850876
13.828065405904	0.70064443104690
13.783561287356	0.70071232283471
13.739342713107	0.70077987311058
13.695406943810	0.70084709103528
13.651751275046	0.70091398569187
13.608373036768	0.70098056608563
13.565269592760	0.70104684114393
13.522438340099	0.70111281971622
13.479876708633	0.70117851057390
13.437582160466	0.70124392241033
13.395552189455	0.70130906384076
13.353784320713	0.70137394340229
13.312276110124	0.70143856955387
13.271025143869	0.70150295067628
13.230029037952	0.70156709507210
13.189285437747	0.70163101096576
13.148792017544	0.70169470650351
13.108546480105	0.70175818975349
13.068546556234	0.70182146870571
13.028790004346	0.70188455127216
12.989274610052	0.70194744528677
12.949998185745	0.70201015850555
12.910958570198	0.70207269860662
12.872153628167	0.70213507319030
12.833581250000	0.70219728977915
12.795239351259	0.70225935581815
12.757125872340	0.70232127867470
12.719238778108	0.70238306563881
12.681576057530	0.70244472392316
12.644135723323	0.70250626066327
12.606915811606	0.70256768291758
12.569914381551	0.70262899766765
12.533129515050	0.70269021181824
12.496559316382	0.70275133219753
12.460201911887	0.70281236555724
12.424055449648	0.70287331857279
12.388118099174	0.70293419784354
12.352388051092	0.70299500989289
12.316863516845	0.70305576116853
12.281542728390	0.70311645804260
12.246423937908	0.70317710681192
12.211505417515	0.70323771369819
12.176785458976	0.70329828484820
12.142262373431	0.70335882633405
12.107934491115	0.70341934415341
12.073800161095	0.70347984422972
12.039857751004	0.70354033241244
12.006105646776	0.70360081447732
11.972542252396	0.70366129612662
11.939165989646	0.70372178298938
11.905975297855	0.70378228062171
11.872968633663	0.70384279450704
11.840144470774	0.70390333005638
11.807501299724	0.70396389260863
11.775037627651	0.70402448743087
11.742751978065	0.70408511971861
11.710642890625	0.70414579459615
11.678708920919	0.70420651711682
11.646948640249	0.70426729226333
11.615360635413	0.70432812494807
11.583943508501	0.70438902001344
11.552695876686	0.70444998223213
11.521616372022	0.70451101630750
11.490703641242	0.70457212687389
11.459956345566	0.70463331849691
11.429373160503	0.70469459567389
11.398952775665	0.70475596283410
11.368693894577	0.70481742433919
11.338595234493	0.70487898448349
11.308655526217	0.70494064749440
11.278873513920	0.70500241753271
11.249247954972	0.70506429869303
11.219777619760	0.70512629500408
11.190461291527	0.70518841042912
11.161297766195	0.70525064886630
11.132285852209	0.70531301414904
11.103424370370	0.70537551004644
11.074712153676	0.70543814026360
11.046148047163	0.70550090844209
11.017730907755	0.70556381816029
10.989459604106	0.70562687293379
10.961333016453	0.70569007621581
10.933350036470	0.70575343139758
10.905509567115	0.70581694180875
10.877810522496	0.70588061071781
10.850251827723	0.70594444133248
10.822832418773	0.70600843680013
10.795551242348	0.70607260020821
10.768407255747	0.70613693458462
10.741399426729	0.70620144289820
10.714526733381	0.70626612805910
10.687788163993	0.70633099291920
10.661182716927	0.70639604027257
10.634709400497	0.70646127285590
10.608367232838	0.70652669334889
10.582155241793	0.70659230437471
10.556072464789	0.70665810850044
10.530117948718	0.70672410823748
10.504290749825	0.70679030604204
10.478589933590	0.70685670431550
10.453014574616	0.70692330540493
10.427563756522	0.70699011160348
10.402236571825	0.70705712515085
10.377032121841	0.70712434823374
10.351949516575	0.70719178298626
10.326987874612	0.70725943149044
10.302146323024	0.70732729577660
10.277423997257	0.70739537782390
10.252820041040	0.70746367956068
10.228333606278	0.70753220286501
10.203963852961	0.70760094956510
10.179709949066	0.70766992143974
10.155571070461	0.70773912021878
10.131546400811	0.70780854758361
10.107635131490	0.70787820516754
10.083836461487	0.70794809455634
10.060149597315	0.70801821728867
10.036573752929	0.70808857485650
10.013108149633	0.70815916870564
9.9897520159947	0.70823000023614
9.9665045877660	0.70830107080279
9.9433651077944	0.70837238171554
9.9203328259431	0.70844393424002
9.8974069990096	0.70851572959793
9.8745868906456	0.70858776896757
9.8518717712783	0.70866005348426
9.8292609180328	0.70873258424080
9.8067536146549	0.70880536228795
9.7843491514360	0.70887838863488
9.7620468251384	0.70895166424966
9.7398459389214	0.70902519005965
9.7177458022690	0.70909896695206
9.6957457309185	0.70917299577431
9.6738450467893	0.70924727733458
9.6520430779137	0.70932181240220
9.6303391583681	0.70939660170816
9.6087326282051	0.70947164594553
9.5872228333866	0.70954694576995
9.5658091257179	0.70962250180007
9.5444908627826	0.70969831461801
9.5232674078780	0.70977438476982
9.5021381299525	0.70985071276593
9.4811024035421	0.70992729908164
9.4601596087094	0.71000414415751
9.4393091309824	0.71008124839987
9.4185503612944	0.71015861218125
9.3978826959248	0.71023623584083
9.3773055364404	0.71031411968490
9.3568182896380	0.71039226398731
9.3364203674868	0.71047066898992
9.3161111870727	0.71054933490304
9.2958901705426	0.71062826190586
9.2757567450495	0.71070745014696
9.2557103426984	0.71078689974468
9.2357504004929	0.71086661078760
9.2158763602828	0.71094658333499
9.1960876687117	0.71102681741724
9.1763837771656	0.71110731303627
9.1567641417227	0.71118807016603
9.1372282231027	0.71126908875288
9.1177754866180	0.71135036871607
9.0984054021244	0.71143190994813
9.0791174439733	0.71151371231534
9.0599110909640	0.71159577565814
9.0407858262967	0.71167809979156
9.0217411375263	0.71176068450566
9.0027765165165	0.71184352956595
8.9838914593947	0.71192663471380
8.9650854665072	0.71200999966688
8.9463580423754	0.71209362411957
8.9277086956522	0.71217750774340
8.9091369390788	0.71226165018743
8.8906422894425	0.71234605107871
8.8722242675348	0.71243071002264
8.8538823981099	0.71251562660343
8.8356162098438	0.71260080038448
8.8174252352941	0.71268623090882
8.7993090108600	0.71277191769945
8.7812670767428	0.71285786025983
8.7632989769073	0.71294405807421
8.7454042590432	0.71303051060806
8.7275824745269	0.71311721730848
8.7098331783847	0.71320417760455
8.6921559292549	0.71329139090779
8.6745502893519	0.71337885661247
8.6570158244297	0.71346657409607
8.6395521037464	0.71355454271962
8.6221587000288	0.71364276182810
8.6048351894374	0.71373123075085
8.5875811515325	0.71381994880187
8.5703961692396	0.71390891528029
8.5532798288160	0.71399812947069
8.5362317198178	0.71408759064347
8.5192514350668	0.71417729805526
8.5023385706183	0.71426725094922
8.4854927257288	0.71435744855550
8.4687135028249	0.71444789009150
8.4520005074711	0.71453857476230
8.4353533483399	0.71462950176099
8.4187716371806	0.71472067026903
8.4022549887892	0.71481207945660
8.3858030209790	0.71490372848296
8.3694153545505	0.71499561649677
8.3530916132627	0.71508774263647
8.3368314238042	0.71518010603059
8.3206344157646	0.71527270579812
8.3045002216066	0.71536554104881
8.2884284766381	0.71545861088353
8.2724188189845	0.71555191439459
8.2564708895621	0.71564545066609
8.2405843320506	0.71573921877421
8.2247587928669	0.71583321778755
8.2089939211391	0.71592744676746
8.1932893686800	0.71602190476833
8.1776447899618	0.71611659083795
8.1620598420909	0.71621150401775
8.1465341847826	0.71630664334320
8.1310674803363	0.71640200784403
8.1156593936113	0.71649759654459
8.1003095920022	0.71659340846413
8.0850177454153	0.71668944261708
8.0697835262450	0.71678569801338
8.0546066093498	0.71688217365875
8.0394866720300	0.71697886855498
8.0244233940043	0.71707578170021
8.0094164573871	0.71717291208924
7.9944655466667	0.71727025871376
7.9795703486825	0.71736782056268
7.9647305526036	0.71746559662237
7.9499458499072	0.71756358587695
7.9352159343568	0.71766178730854
7.9205405019815	0.71776019989754
7.9059192510549	0.71785882262288
7.8913518820742	0.71795765446227
7.8768380977404	0.71805669439251
7.8623776029373	0.71815594138965
7.8479701047120	0.71825539442934
7.8336153122550	0.71835505248701
7.8193129368805	0.71845491453811
7.8050626920073	0.71855497955842
7.7908642931393	0.71865524652419
7.7767174578470	0.71875571441246
7.7626219057483	0.71885638220124
7.7485773584906	0.71895724886977
7.7345835397317	0.71905831339871
7.7206401751223	0.71915957477039
7.7067469922879	0.71926103196903
7.6929037208109	0.71936268398093
7.6791100922131	0.71946452979472
7.6653658399386	0.71956656840152
7.6516706993364	0.71966879879522
7.6380244076433	0.71977121997259
7.6244267039674	0.71987383093358
7.6108773292714	0.71997663068142
7.5973760263558	0.72007961822290
7.5839225398432	0.72018279256851
7.5705166161616	0.72028615273263
7.5571580035291	0.72038969773375
7.5438464519376	0.72049342659461
7.5305817131374	0.72059733834241
7.5173635406219	0.72070143200896
7.5041916896120	0.72080570663088
7.4910659170415	0.72091016124975
7.4779859815415	0.72101479491229
7.4649516434263	0.72111960667049
7.4519626646781	0.72122459558182
7.4390188089330	0.72132976070937
7.4261198414664	0.72143510112198
7.4132655291790	0.72154061589441
7.4004556405826	0.72164630410750
7.3876899457861	0.72175216484829
7.3749682164822	0.72185819721018
7.3622902259332	0.72196440029306
7.3496557489581	0.72207077320344
7.3370645619187	0.72217731505462
7.3245164427071	0.72228402496677
7.3120111707317	0.72239090206708
7.2995485269053	0.72249794548989
7.2871282936315	0.72260515437679
7.2747502547925	0.72271252787676
7.2624141957364	0.72282006514629
7.2501199032648	0.72292776534945
7.2378671656205	0.72303562765804
7.2256557724753	0.72314365125169
7.2134855149182	0.72325183531795
7.2013561854432	0.72336017905238
7.1892675779376	0.72346868165869
7.1772194876706	0.72357734234878
7.1652117112811	0.72368616034289
7.1532440467669	0.72379513486962
7.1413162934731	0.72390426516608
7.1294282520809	0.72401355047792
7.1175797245964	0.72412299005945
7.1057705143399	0.72423258317371
7.0940004259347	0.72434232909251
7.0822692652965	0.72445222709654
7.0705768396226	0.72456227647543
7.0589229573817	0.72467247652778
7.0473074283028	0.72478282656129
7.0357300633654	0.72489332589276
7.0241906747891	0.72500397384818
7.0126890760234	0.72511476976275
7.0012250817375	0.72522571298098
6.9897985078107	0.72533680285672
6.9784091713222	0.72544803875317
6.9670568905415	0.72555942004297
6.9557414849188	0.72567094610823
6.9444627750753	0.72578261634055
6.9332205827937	0.72589443014108
6.9220147310090	0.72600638692054
6.9108450437990	0.72611848609923
6.8997113463751	0.72623072710710
6.8886134650735	0.72634310938375
6.8775512273457	0.72645563237845
6.8665244617499	0.72656829555017
6.8555329979419	0.72668109836760
6.8445766666667	0.72679404030913
6.8336552997493	0.72690712086293
6.8227687300865	0.72702033952689
6.8119167916383	0.72713369580867
6.8010993194192	0.72724718922569
6.7903161494904	0.72736081930514
6.7795671189507	0.72747458558395
6.7688520659291	0.72758848760886
6.7581708295762	0.72770252493633
6.7475232500563	0.72781669713257
6.7369091685393	0.72793100377355
6.7263284271932	0.72804544444497
6.7157808691756	0.72816001874224
6.7052663386267	0.72827472627046
6.6947846806610	0.72838956664442
6.6843357413601	0.72850453948858
6.6739193677649	0.72861964443703
6.6635354078684	0.72873488113346
6.6531837106081	0.72885024923117
6.6428641258586	0.72896574839299
6.6325765044248	0.72908137829131
6.6223206980340	0.72919713860797
6.6120965593295	0.72931302903429
6.6019039418630	0.72942904927101
6.5917427000879	0.72954519902823
6.5816126893524	0.72966147802541
6.5715137658922	0.72977788599127
6.5614457868243	0.72989442266382
6.5514086101399	0.73001108779024
6.5414020946978	0.73012788112685
6.5314261002179	0.73024480243910
6.5214804872743	0.73036185150146
6.5115651172893	0.73047902809740
6.5016798525266	0.73059633201932
6.4918245560849	0.73071376306850
6.4819990918919	0.73083132105502
6.4722033246978	0.73094900579773
6.4624371200690	0.73106681712415
6.4527003443823	0.73118475487042
6.4429928648184	0.73130281888127
6.4333145493562	0.73142100900986
6.4236652667667	0.73153932511780
6.4140448866068	0.73165776707504
6.4044532792138	0.73177633475979
6.3948903156997	0.73189502805846
6.3853558679446	0.73201384686556
6.3758498085921	0.73213279108366
6.3663720110427	0.73225186062328
6.3569223494487	0.73237105540280
6.3475006987084	0.73249037534842
6.3381069344609	0.73260982039404
6.3287409330800	0.73272939048118
6.3194025716695	0.73284908555889
6.3100917280572	0.73296890558369
6.3008082807902	0.73308885051945
6.2915521091291	0.73320892033730
6.2823230930427	0.73332911501556
6.2731211132036	0.73344943453964
6.2639460509820	0.73356987890191
6.2547977884415	0.73369044810168
6.2456762083333	0.73381114214501
6.2365811940919	0.73393196104469
6.2275126298297	0.73405290482011
6.2184704003319	0.73417397349715
6.2094543910522	0.73429516710810
6.2004644881075	0.73441648569154
6.1915005782734	0.73453792929226
6.1825625489792	0.73465949796112
6.1736502883031	0.73478119175499
6.1647636849681	0.73490301073661
6.1559026283368	0.73502495497451
6.1470670084068	0.73514702454286
6.1382567158067	0.73526921952142
6.1294716417910	0.73539153999537
6.1207116782360	0.73551398605528
6.1119767176351	0.73563655779690
6.1032666530945	0.73575925532112
6.0945813783289	0.73588207873386
6.0859207876573	0.73600502814590
6.0772847759984	0.73612810367283
6.0686732388664	0.73625130543489
6.0600860723671	0.73637463355690
6.0515231731934	0.73649808816809
6.0429844386212	0.73662166940205
6.0344697665056	0.73674537739656
6.0259790552764	0.73686921229349
6.0175122039342	0.73699317423869
6.0090691120465	0.73711726338188
6.0006496797438	0.73724147987652
5.9922538077154	0.73736582387969
5.9838813972056	0.73749029555199
5.9755323500100	0.73761489505738
5.9672065684713	0.73773962256312
5.9589039554760	0.73786447823961
5.9506244144502	0.73798946226029
5.9423678493558	0.73811457480150
5.9341341646873	0.73823981604238
5.9259232654675	0.73836518616474
5.9177350572444	0.73849068535296
5.9095694460871	0.73861631379384
5.9014263385827	0.73874207167650
5.8933056418321	0.73886795919225
5.8852072634472	0.73899397653448
5.8771311115468	0.73912012389853
5.8690770947533	0.73924640148159
5.8610451221896	0.73937280948255
5.8530351034752	0.73949934810190
5.8450469487229	0.73962601754162
5.8370805685358	0.73975281800501
5.8291358740035	0.73987974969665
5.8212127766990	0.74000681282222
5.8133111886756	0.74013400758840
5.8054310224632	0.74026133420274
5.7975721910656	0.74038879287359
5.7897346079567	0.74051638380989
5.7819181870781	0.74064410722117
5.7741228428351	0.74077196331730
5.7663484900942	0.74089995230851
5.7585950441798	0.74102807440516
5.7508624208709	0.74115632981769
5.7431505363985	0.74128471875647
5.7354593074421	0.74141324143171
5.7277886511272	0.74154189805334
5.7201384850219	0.74167068883087
5.7125087271341	0.74179961397331
5.7048992959087	0.74192867368903
5.6973101102242	0.74205786818568
5.6897410893908	0.74218719767002
5.6821921531463	0.74231666234790
5.6746632216544	0.74244626242404
5.6671542155009	0.74257599810200
5.6596650556919	0.74270586958406
5.6521956636501	0.74283587707106
5.6447459612126	0.74296602076236
5.6373158706281	0.74309630085568
5.6299053145540	0.74322671754703
5.6225142160540	0.74335727103057
5.6151424985952	0.74348796149854
5.6077900860456	0.74361878914113
5.6004569026714	0.74374975414639
5.5931428731343	0.74388085670012
5.5858479224893	0.74401209698577
5.5785719761816	0.74414347518435
5.5713149600446	0.74427499147430
5.5640768002970	0.74440664603145
5.5568574235403	0.74453843902884
5.5496567567568	0.74467037063669
5.5424747273063	0.74480244102230
5.5353112629247	0.74493465034991
5.5281662917204	0.74506699878063
5.5210397421731	0.74519948647238
5.5139315431304	0.74533211357974
5.5068416238060	0.74546488025390
5.4997699137773	0.74559778664257
5.4927163429828	0.74573083288987
5.4856808417200	0.74586401913624
5.4786633406433	0.74599734551839
5.4716637707611	0.74613081216919
5.4646820634342	0.74626441921757
5.4577181503732	0.74639816678849
5.4507719636364	0.74653205500280
5.4438434356274	0.74666608397719
5.4369324990932	0.74680025382411
5.4300390871219	0.74693456465170
5.4231631331404	0.74706901656368
5.4163045709124	0.74720360965933
5.4094633345363	0.74733834403336
5.4026393584430	0.74747321977587
5.3958325773938	0.74760823697229
5.3890429264785	0.74774339570327
5.3822703411131	0.74787869604464
5.3755147570378	0.74801413806736
5.3687761103152	0.74814972183740
5.3620543373278	0.74828544741574
5.3553493747767	0.74842131485825
5.3486611596789	0.74855732421568
5.3419896293656	0.74869347553357
5.3353347214807	0.74882976885219
5.3286963739780	0.74896620420649
5.3220745251198	0.74910278162607
5.3154691134752	0.74923950113508
5.3088800779175	0.74937636275219
5.3023073576229	0.74951336649057
5.2957508920685	0.74965051235777
5.2892106210303	0.74978780035574
5.2826864845815	0.74992523048075
5.2761784230905	0.75006280272336
5.2696863772192	0.75020051706837
5.2632102879213	0.75033837349476
5.2567500964405	0.75047637197570
5.2503057443082	0.75061451247844
5.2438771733427	0.75075279496437
5.2374643256464	0.75089121938887
5.2310671436050	0.75102978570138
5.2246855698850	0.75116849384530
5.2183195474326	0.75130734375799
5.2119690194715	0.75144633537074
5.2056339295016	0.75158546860874
5.1993142212973	0.75172474339103
5.1930098389052	0.75186415963054
5.1867207266436	0.75200371723398
5.1804468290997	0.75214341610191
5.1741880911288	0.75228325612866
5.1679444578521	0.75242323720231
5.1617158746556	0.75256335920473
5.1555022871883	0.75270362201151
5.1493036413604	0.75284402549198
5.1431198833419	0.75298456950918
5.1369509595613	0.75312525391987
5.1307968167037	0.75326607857452
5.1246574017094	0.75340704331727
5.1185326617722	0.75354814798597
5.1124225443383	0.75368939241218
5.1063269971044	0.75383077642112
5.1002459680163	0.75397229983172
5.0941794052676	0.75411396245660
5.0881272572980	0.75425576410209
5.0820894727920	0.75439770456821
5.0760660006773	0.75453978364872
5.0700567901235	0.75468200113108
5.0640617905405	0.75482435679649
5.0580809515775	0.75496685041990
5.0521142231210	0.75510948177004
5.0461615552937	0.75525225060939
5.0402228984533	0.75539515669426
5.0342982031906	0.75553819977475
5.0283874203287	0.75568137959480
5.0224905009214	0.75582469589223
5.0166073962517	0.75596814839874
5.0107380578305	0.75611173683992
5.0048824373957	0.75625546093534
4.9990404869101	0.75639932039850
4.9932121585610	0.75654331493693
4.9873974047579	0.75668744425218
4.9815961781323	0.75683170803986
4.9758084315353	0.75697610598971
4.9700341180371	0.75712063778558
4.9642731909256	0.75726530310552
4.9585256037049	0.75741010162179
4.9527913100942	0.75755503300094
4.9470702640264	0.75770009690380
4.9413624196473	0.75784529298556
4.9356677313138	0.75799062089581
4.9299861535932	0.75813608027860
4.9243176412615	0.75828167077247
4.9186621493027	0.75842739201051
4.9130196329072	0.75857324362041
4.9073900474709	0.75871922522454
4.9017733485939	0.75886533643996
4.8961694920790	0.75901157687852
4.8905784339315	0.75915794614689
4.8850001303569	0.75930444384664
4.8794345377604	0.75945106957430
4.8738816127459	0.75959782292141
4.8683413121143	0.75974470347459
4.8628135928629	0.75989171081562
4.8572984121841	0.76003884452150
4.8517957274640	0.76018610416451
4.8463054962819	0.76033348931229
4.8408276764088	0.76048099952790
4.8353622258065	0.76062863436992
