#Parameters = {thARC=0.4; nARC=1; thsub=1; p=1; nSub=1.25}
#"Wavelength / um"	"T (57) [Real Part]"
#--------------------------------------
14.989622900000	0.98765424633151
14.937342202292	0.98767345566775
14.885424925521	0.98769232646592
14.833867293419	0.98771086169078
14.782665581854	0.98772906429572
14.731816117936	0.98774693722268
14.681315279138	0.98776448340213
14.631159492435	0.98778170575304
14.581345233463	0.98779860718284
14.531869025691	0.98781519058740
14.482727439614	0.98783145885097
14.433917091960	0.98784741484619
14.385434644914	0.98786306143403
14.337276805356	0.98787840146374
14.289440324118	0.98789343777287
14.241921995249	0.98790817318722
14.194718655303	0.98792261052079
14.147827182633	0.98793675257579
14.101244496707	0.98795060214257
14.054967557431	0.98796416199964
14.008993364486	0.98797743491360
13.963318956684	0.98799042363914
13.917941411328	0.98800313091901
13.872857843591	0.98801555948401
13.828065405904	0.98802771205292
13.783561287356	0.98803959133253
13.739342713107	0.98805120001759
13.695406943810	0.98806254079080
13.651751275046	0.98807361632276
13.608373036768	0.98808442927199
13.565269592760	0.98809498228489
13.522438340099	0.98810527799572
13.479876708633	0.98811531902656
13.437582160466	0.98812510798733
13.395552189455	0.98813464747577
13.353784320713	0.98814394007738
13.312276110124	0.98815298836543
13.271025143869	0.98816179490097
13.230029037952	0.98817036223276
13.189285437747	0.98817869289729
13.148792017544	0.98818678941877
13.108546480105	0.98819465430908
13.068546556234	0.98820229006780
13.028790004346	0.98820969918217
12.989274610052	0.98821688412707
12.949998185745	0.98822384736505
12.910958570198	0.98823059134625
12.872153628167	0.98823711850847
12.833581250000	0.98824343127709
12.795239351259	0.98824953206510
12.757125872340	0.98825542327307
12.719238778108	0.98826110728917
12.681576057530	0.98826658648911
12.644135723323	0.98827186323619
12.606915811606	0.98827693988125
12.569914381551	0.98828181876269
12.533129515050	0.98828650220645
12.496559316382	0.98829099252599
12.460201911887	0.98829529202233
12.424055449648	0.98829940298400
12.388118099174	0.98830332768705
12.352388051092	0.98830706839505
12.316863516845	0.98831062735908
12.281542728390	0.98831400681776
12.246423937908	0.98831720899717
12.211505417515	0.98832023611095
12.176785458976	0.98832309036020
12.142262373431	0.98832577393355
12.107934491115	0.98832828900714
12.073800161095	0.98833063774459
12.039857751004	0.98833282229704
12.006105646776	0.98833484480314
11.972542252396	0.98833670738904
11.939165989646	0.98833841216839
11.905975297855	0.98833996124237
11.872968633663	0.98834135669966
11.840144470774	0.98834260061645
11.807501299724	0.98834369505648
11.775037627651	0.98834464207098
11.742751978065	0.98834544369873
11.710642890625	0.98834610196603
11.678708920919	0.98834661888674
11.646948640249	0.98834699646226
11.615360635413	0.98834723668151
11.583943508501	0.98834734152101
11.552695876686	0.98834731294483
11.521616372022	0.98834715290460
11.490703641242	0.98834686333956
11.459956345566	0.98834644617651
11.429373160503	0.98834590332986
11.398952775665	0.98834523670164
11.368693894577	0.98834444818147
11.338595234493	0.98834353964664
11.308655526217	0.98834251296202
11.278873513920	0.98834136998019
11.249247954972	0.98834011254134
11.219777619760	0.98833874247337
11.190461291527	0.98833726159184
11.161297766195	0.98833567170001
11.132285852209	0.98833397458886
11.103424370370	0.98833217203708
11.074712153676	0.98833026581112
11.046148047163	0.98832825766515
11.017730907755	0.98832614934113
10.989459604106	0.98832394256878
10.961333016453	0.98832163906564
10.933350036470	0.98831924053704
10.905509567115	0.98831674867614
10.877810522496	0.98831416516396
10.850251827723	0.98831149166935
10.822832418773	0.98830872984908
10.795551242348	0.98830588134776
10.768407255747	0.98830294779797
10.741399426729	0.98829993082018
10.714526733381	0.98829683202283
10.687788163993	0.98829365300232
10.661182716927	0.98829039534303
10.634709400497	0.98828706061737
10.608367232838	0.98828365038576
10.582155241793	0.98828016619667
10.556072464789	0.98827660958664
10.530117948718	0.98827298208029
10.504290749825	0.98826928519037
10.478589933590	0.98826552041775
10.453014574616	0.98826168925145
10.427563756522	0.98825779316867
10.402236571825	0.98825383363482
10.377032121841	0.98824981210351
10.351949516575	0.98824573001662
10.326987874612	0.98824158880427
10.302146323024	0.98823738988491
10.277423997257	0.98823313466526
10.252820041040	0.98822882454043
10.228333606278	0.98822446089387
10.203963852961	0.98822004509742
10.179709949066	0.98821557851133
10.155571070461	0.98821106248433
10.131546400811	0.98820649835358
10.107635131490	0.98820188744475
10.083836461487	0.98819723107204
10.060149597315	0.98819253053817
10.036573752929	0.98818778713447
10.013108149633	0.98818300214085
9.9897520159947	0.98817817682587
9.9665045877660	0.98817331244674
9.9433651077944	0.98816841024935
9.9203328259431	0.98816347146831
9.8974069990096	0.98815849732698
9.8745868906456	0.98815348903751
9.8518717712783	0.98814844780082
9.8292609180328	0.98814337480668
9.8067536146549	0.98813827123373
9.7843491514360	0.98813313824950
9.7620468251384	0.98812797701043
9.7398459389214	0.98812278866195
9.7177458022690	0.98811757433843
9.6957457309185	0.98811233516330
9.6738450467893	0.98810707224901
9.6520430779137	0.98810178669710
9.6303391583681	0.98809647959822
9.6087326282051	0.98809115203218
9.5872228333866	0.98808580506795
9.5658091257179	0.98808043976371
9.5444908627826	0.98807505716690
9.5232674078780	0.98806965831421
9.5021381299525	0.98806424423167
9.4811024035421	0.98805881593464
9.4601596087094	0.98805337442784
9.4393091309824	0.98804792070544
9.4185503612944	0.98804245575101
9.3978826959248	0.98803698053764
9.3773055364404	0.98803149602792
9.3568182896380	0.98802600317397
9.3364203674868	0.98802050291754
9.3161111870727	0.98801499618997
9.2958901705426	0.98800948391225
9.2757567450495	0.98800396699508
9.2557103426984	0.98799844633889
9.2357504004929	0.98799292283386
9.2158763602828	0.98798739735999
9.1960876687117	0.98798187078710
9.1763837771656	0.98797634397488
9.1567641417227	0.98797081777296
9.1372282231027	0.98796529302089
9.1177754866180	0.98795977054823
9.0984054021244	0.98795425117454
9.0791174439733	0.98794873570946
9.0599110909640	0.98794322495273
9.0407858262967	0.98793771969420
9.0217411375263	0.98793222071394
9.0027765165165	0.98792672878220
8.9838914593947	0.98792124465950
8.9650854665072	0.98791576909665
8.9463580423754	0.98791030283478
8.9277086956522	0.98790484660541
8.9091369390788	0.98789940113045
8.8906422894425	0.98789396712227
8.8722242675348	0.98788854528373
8.8538823981099	0.98788313630821
8.8356162098438	0.98787774087968
8.8174252352941	0.98787235967269
8.7993090108600	0.98786699335246
8.7812670767428	0.98786164257489
8.7632989769073	0.98785630798661
8.7454042590432	0.98785099022504
8.7275824745269	0.98784568991838
8.7098331783847	0.98784040768571
8.6921559292549	0.98783514413699
8.6745502893519	0.98782989987311
8.6570158244297	0.98782467548597
8.6395521037464	0.98781947155845
8.6221587000288	0.98781428866451
8.6048351894374	0.98780912736921
8.5875811515325	0.98780398822875
8.5703961692396	0.98779887179051
8.5532798288160	0.98779377859312
8.5362317198178	0.98778870916647
8.5192514350668	0.98778366403176
8.5023385706183	0.98777864370154
8.4854927257288	0.98777364867977
8.4687135028249	0.98776867946185
8.4520005074711	0.98776373653467
8.4353533483399	0.98775882037663
8.4187716371806	0.98775393145772
8.4022549887892	0.98774907023953
8.3858030209790	0.98774423717531
8.3694153545505	0.98773943271003
8.3530916132627	0.98773465728037
8.3368314238042	0.98772991131482
8.3206344157646	0.98772519523371
8.3045002216066	0.98772050944923
8.2884284766381	0.98771585436549
8.2724188189845	0.98771123037858
8.2564708895621	0.98770663787657
8.2405843320506	0.98770207723961
8.2247587928669	0.98769754883994
8.2089939211391	0.98769305304192
8.1932893686800	0.98768859020213
8.1776447899618	0.98768416066936
8.1620598420909	0.98767976478467
8.1465341847826	0.98767540288145
8.1310674803363	0.98767107528546
8.1156593936113	0.98766678231484
8.1003095920022	0.98766252428023
8.0850177454153	0.98765830148473
8.0697835262450	0.98765411422401
8.0546066093498	0.98764996278630
8.0394866720300	0.98764584745250
8.0244233940043	0.98764176849617
8.0094164573871	0.98763772618359
7.9944655466667	0.98763372077383
7.9795703486825	0.98762975251876
7.9647305526036	0.98762582166312
7.9499458499072	0.98762192844455
7.9352159343568	0.98761807309366
7.9205405019815	0.98761425583403
7.9059192510549	0.98761047688232
7.8913518820742	0.98760673644824
7.8768380977404	0.98760303473468
7.8623776029373	0.98759937193767
7.8479701047120	0.98759574824650
7.8336153122550	0.98759216384371
7.8193129368805	0.98758861890518
7.8050626920073	0.98758511360015
7.7908642931393	0.98758164809125
7.7767174578470	0.98757822253461
7.7626219057483	0.98757483707983
7.7485773584906	0.98757149187006
7.7345835397317	0.98756818704207
7.7206401751223	0.98756492272626
7.7067469922879	0.98756169904671
7.6929037208109	0.98755851612125
7.6791100922131	0.98755537406148
7.6653658399386	0.98755227297283
7.6516706993364	0.98754921295462
7.6380244076433	0.98754619410007
7.6244267039674	0.98754321649637
7.6108773292714	0.98754028022473
7.5973760263558	0.98753738536042
7.5839225398432	0.98753453197280
7.5705166161616	0.98753172012540
7.5571580035291	0.98752894987595
7.5438464519376	0.98752622127641
7.5305817131374	0.98752353437304
7.5173635406219	0.98752088920644
7.5041916896120	0.98751828581159
7.4910659170415	0.98751572421790
7.4779859815415	0.98751320444925
7.4649516434263	0.98751072652408
7.4519626646781	0.98750829045534
7.4390188089330	0.98750589625065
7.4261198414664	0.98750354391226
7.4132655291790	0.98750123343715
7.4004556405826	0.98749896481704
7.3876899457861	0.98749673803846
7.3749682164822	0.98749455308278
7.3622902259332	0.98749240992627
7.3496557489581	0.98749030854015
7.3370645619187	0.98748824889061
7.3245164427071	0.98748623093888
7.3120111707317	0.98748425464128
7.2995485269053	0.98748231994923
7.2871282936315	0.98748042680935
7.2747502547925	0.98747857516346
7.2624141957364	0.98747676494866
7.2501199032648	0.98747499609734
7.2378671656205	0.98747326853726
7.2256557724753	0.98747158219157
7.2134855149182	0.98746993697889
7.2013561854432	0.98746833281332
7.1892675779376	0.98746676960450
7.1772194876706	0.98746524725766
7.1652117112811	0.98746376567366
7.1532440467669	0.98746232474903
7.1413162934731	0.98746092437603
7.1294282520809	0.98745956444271
7.1175797245964	0.98745824483290
7.1057705143399	0.98745696542631
7.0940004259347	0.98745572609855
7.0822692652965	0.98745452672119
7.0705768396226	0.98745336716178
7.0589229573817	0.98745224728394
7.0473074283028	0.98745116694735
7.0357300633654	0.98745012600784
7.0241906747891	0.98744912431742
7.0126890760234	0.98744816172430
7.0012250817375	0.98744723807299
6.9897985078107	0.98744635320429
6.9784091713222	0.98744550695538
6.9670568905415	0.98744469915983
6.9557414849188	0.98744392964765
6.9444627750753	0.98744319824537
6.9332205827937	0.98744250477603
6.9220147310090	0.98744184905928
6.9108450437990	0.98744123091137
6.8997113463751	0.98744065014525
6.8886134650735	0.98744010657056
6.8775512273457	0.98743959999371
6.8665244617499	0.98743913021794
6.8555329979419	0.98743869704329
6.8445766666667	0.98743830026674
6.8336552997493	0.98743793968218
6.8227687300865	0.98743761508049
6.8119167916383	0.98743732624958
6.8010993194192	0.98743707297442
6.7903161494904	0.98743685503711
6.7795671189507	0.98743667221688
6.7688520659291	0.98743652429018
6.7581708295762	0.98743641103069
6.7475232500563	0.98743633220940
6.7369091685393	0.98743628759461
6.7263284271932	0.98743627695200
6.7157808691756	0.98743630004465
6.7052663386267	0.98743635663314
6.6947846806610	0.98743644647550
6.6843357413601	0.98743656932736
6.6739193677649	0.98743672494189
6.6635354078684	0.98743691306991
6.6531837106081	0.98743713345992
6.6428641258586	0.98743738585814
6.6325765044248	0.98743767000851
6.6223206980340	0.98743798565282
6.6120965593295	0.98743833253066
6.6019039418630	0.98743871037952
6.5917427000879	0.98743911893484
6.5816126893524	0.98743955792998
6.5715137658922	0.98744002709634
6.5614457868243	0.98744052616336
6.5514086101399	0.98744105485858
6.5414020946978	0.98744161290767
6.5314261002179	0.98744220003446
6.5214804872743	0.98744281596102
6.5115651172893	0.98744346040765
6.5016798525266	0.98744413309297
6.4918245560849	0.98744483373393
6.4819990918919	0.98744556204584
6.4722033246978	0.98744631774245
6.4624371200690	0.98744710053597
6.4527003443823	0.98744791013709
6.4429928648184	0.98744874625506
6.4333145493562	0.98744960859769
6.4236652667667	0.98745049687143
6.4140448866068	0.98745141078136
6.4044532792138	0.98745235003128
6.3948903156997	0.98745331432372
6.3853558679446	0.98745430335999
6.3758498085921	0.98745531684020
6.3663720110427	0.98745635446335
6.3569223494487	0.98745741592728
6.3475006987084	0.98745850092881
6.3381069344609	0.98745960916371
6.3287409330800	0.98746074032675
6.3194025716695	0.98746189411176
6.3100917280572	0.98746307021167
6.3008082807902	0.98746426831849
6.2915521091291	0.98746548812343
6.2823230930427	0.98746672931688
6.2731211132036	0.98746799158847
6.2639460509820	0.98746927462711
6.2547977884415	0.98747057812101
6.2456762083333	0.98747190175773
6.2365811940919	0.98747324522422
6.2275126298297	0.98747460820685
6.2184704003319	0.98747599039144
6.2094543910522	0.98747739146331
6.2004644881075	0.98747881110731
6.1915005782734	0.98748024900787
6.1825625489792	0.98748170484900
6.1736502883031	0.98748317831435
6.1647636849681	0.98748466908727
6.1559026283368	0.98748617685079
6.1470670084068	0.98748770128771
6.1382567158067	0.98748924208058
6.1294716417910	0.98749079891179
6.1207116782360	0.98749237146357
6.1119767176351	0.98749395941804
6.1032666530945	0.98749556245723
6.0945813783289	0.98749718026314
6.0859207876573	0.98749881251773
6.0772847759984	0.98750045890300
6.0686732388664	0.98750211910102
6.0600860723671	0.98750379279391
6.0515231731934	0.98750547966394
6.0429844386212	0.98750717939352
6.0344697665056	0.98750889166528
6.0259790552764	0.98751061616202
6.0175122039342	0.98751235256685
6.0090691120465	0.98751410056311
6.0006496797438	0.98751585983451
5.9922538077154	0.98751763006508
5.9838813972056	0.98751941093924
5.9755323500100	0.98752120214184
5.9672065684713	0.98752300335815
5.9589039554760	0.98752481427394
5.9506244144502	0.98752663457547
5.9423678493558	0.98752846394957
5.9341341646873	0.98753030208360
5.9259232654675	0.98753214866557
5.9177350572444	0.98753400338408
5.9095694460871	0.98753586592842
5.9014263385827	0.98753773598855
5.8933056418321	0.98753961325518
5.8852072634472	0.98754149741976
5.8771311115468	0.98754338817451
5.8690770947533	0.98754528521247
5.8610451221896	0.98754718822753
5.8530351034752	0.98754909691445
5.8450469487229	0.98755101096887
5.8370805685358	0.98755293008736
5.8291358740035	0.98755485396747
5.8212127766990	0.98755678230771
5.8133111886756	0.98755871480760
5.8054310224632	0.98756065116772
5.7975721910656	0.98756259108969
5.7897346079567	0.98756453427624
5.7819181870781	0.98756648043123
5.7741228428351	0.98756842925964
5.7663484900942	0.98757038046765
5.7585950441798	0.98757233376263
5.7508624208709	0.98757428885317
5.7431505363985	0.98757624544914
5.7354593074421	0.98757820326167
5.7277886511272	0.98758016200319
5.7201384850219	0.98758212138748
5.7125087271341	0.98758408112965
5.7048992959087	0.98758604094622
5.6973101102242	0.98758800055510
5.6897410893908	0.98758995967562
5.6821921531463	0.98759191802860
5.6746632216544	0.98759387533630
5.6671542155009	0.98759583132250
5.6596650556919	0.98759778571251
5.6521956636501	0.98759973823319
5.6447459612126	0.98760168861297
5.6373158706281	0.98760363658187
5.6299053145540	0.98760558187155
5.6225142160540	0.98760752421529
5.6151424985952	0.98760946334805
5.6077900860456	0.98761139900647
5.6004569026714	0.98761333092891
5.5931428731343	0.98761525885543
5.5858479224893	0.98761718252789
5.5785719761816	0.98761910168988
5.5713149600446	0.98762101608680
5.5640768002970	0.98762292546589
5.5568574235403	0.98762482957619
5.5496567567568	0.98762672816861
5.5424747273063	0.98762862099595
5.5353112629247	0.98763050781289
5.5281662917204	0.98763238837603
5.5210397421731	0.98763426244392
5.5139315431304	0.98763612977704
5.5068416238060	0.98763799013787
5.4997699137773	0.98763984329088
5.4927163429828	0.98764168900253
5.4856808417200	0.98764352704133
5.4786633406433	0.98764535717784
5.4716637707611	0.98764717918469
5.4646820634342	0.98764899283657
5.4577181503732	0.98765079791029
5.4507719636364	0.98765259418478
5.4438434356274	0.98765438144110
5.4369324990932	0.98765615946247
5.4300390871219	0.98765792803426
5.4231631331404	0.98765968694406
5.4163045709124	0.98766143598163
5.4094633345363	0.98766317493895
5.4026393584430	0.98766490361025
5.3958325773938	0.98766662179200
5.3890429264785	0.98766832928293
5.3822703411131	0.98767002588405
5.3755147570378	0.98767171139866
5.3687761103152	0.98767338563237
5.3620543373278	0.98767504839311
5.3553493747767	0.98767669949116
5.3486611596789	0.98767833873911
5.3419896293656	0.98767996595195
5.3353347214807	0.98768158094703
5.3286963739780	0.98768318354409
5.3220745251198	0.98768477356527
5.3154691134752	0.98768635083512
5.3088800779175	0.98768791518062
5.3023073576229	0.98768946643120
5.2957508920685	0.98769100441870
5.2892106210303	0.98769252897747
5.2826864845815	0.98769403994429
5.2761784230905	0.98769553715845
5.2696863772192	0.98769702046171
5.2632102879213	0.98769848969837
5.2567500964405	0.98769994471520
5.2503057443082	0.98770138536153
5.2438771733427	0.98770281148920
5.2374643256464	0.98770422295260
5.2310671436050	0.98770561960869
5.2246855698850	0.98770700131696
5.2183195474326	0.98770836793950
5.2119690194715	0.98770971934096
5.2056339295016	0.98771105538858
5.1993142212973	0.98771237595220
5.1930098389052	0.98771368090426
5.1867207266436	0.98771497011981
5.1804468290997	0.98771624347653
5.1741880911288	0.98771750085469
5.1679444578521	0.98771874213723
5.1617158746556	0.98771996720971
5.1555022871883	0.98772117596033
5.1493036413604	0.98772236827995
5.1431198833419	0.98772354406209
5.1369509595613	0.98772470320291
5.1307968167037	0.98772584560125
5.1246574017094	0.98772697115864
5.1185326617722	0.98772807977924
5.1124225443383	0.98772917136994
5.1063269971044	0.98773024584029
5.1002459680163	0.98773130310253
5.0941794052676	0.98773234307160
5.0881272572980	0.98773336566512
5.0820894727920	0.98773437080343
5.0760660006773	0.98773535840957
5.0700567901235	0.98773632840928
5.0640617905405	0.98773728073099
5.0580809515775	0.98773821530588
5.0521142231210	0.98773913206781
5.0461615552937	0.98774003095336
5.0402228984533	0.98774091190184
5.0342982031906	0.98774177485525
5.0283874203287	0.98774261975834
5.0224905009214	0.98774344655855
5.0166073962517	0.98774425520606
5.0107380578305	0.98774504565375
5.0048824373957	0.98774581785723
4.9990404869101	0.98774657177483
4.9932121585610	0.98774730736760
4.9873974047579	0.98774802459929
4.9815961781323	0.98774872343638
4.9758084315353	0.98774940384808
4.9700341180371	0.98775006580628
4.9642731909256	0.98775070928561
4.9585256037049	0.98775133426339
4.9527913100942	0.98775194071967
4.9470702640264	0.98775252863717
4.9413624196473	0.98775309800135
4.9356677313138	0.98775364880034
4.9299861535932	0.98775418102499
4.9243176412615	0.98775469466882
4.9186621493027	0.98775518972805
4.9130196329072	0.98775566620159
4.9073900474709	0.98775612409102
4.9017733485939	0.98775656340059
4.8961694920790	0.98775698413723
4.8905784339315	0.98775738631054
4.8850001303569	0.98775776993277
4.8794345377604	0.98775813501883
4.8738816127459	0.98775848158628
4.8683413121143	0.98775880965532
4.8628135928629	0.98775911924879
4.8572984121841	0.98775941039215
4.8517957274640	0.98775968311350
4.8463054962819	0.98775993744354
4.8408276764088	0.98776017341558
4.8353622258065	0.98776039106555
