#Parameters = {thARC=0.2; nARC=2.75; thsub=1; p=1; nSub=3.5}
#"Wavelength / um"	"T (584) [Real Part]"
#---------------------------------------
14.989622900000	0.69868639707524
14.937342202292	0.69876567031667
14.885424925521	0.69884429831651
14.833867293419	0.69892229271337
14.782665581854	0.69899966507148
14.731816117936	0.69907642688019
14.681315279138	0.69915258955358
14.631159492435	0.69922816443004
14.581345233463	0.69930316277186
14.531869025691	0.69937759576484
14.482727439614	0.69945147451791
14.433917091960	0.69952481006279
14.385434644914	0.69959761335361
14.337276805356	0.69966989526658
14.289440324118	0.69974166659970
14.241921995249	0.69981293807239
14.194718655303	0.69988372032525
14.147827182633	0.69995402391972
14.101244496707	0.70002385933786
14.054967557431	0.70009323698204
14.008993364486	0.70016216717473
13.963318956684	0.70023066015826
13.917941411328	0.70029872609456
13.872857843591	0.70036637506499
13.828065405904	0.70043361707012
13.783561287356	0.70050046202954
13.739342713107	0.70056691978170
13.695406943810	0.70063300008373
13.651751275046	0.70069871261130
13.608373036768	0.70076406695845
13.565269592760	0.70082907263751
13.522438340099	0.70089373907893
13.479876708633	0.70095807563121
13.437582160466	0.70102209156077
13.395552189455	0.70108579605189
13.353784320713	0.70114919820664
13.312276110124	0.70121230704478
13.271025143869	0.70127513150376
13.230029037952	0.70133768043860
13.189285437747	0.70139996262195
13.148792017544	0.70146198674400
13.108546480105	0.70152376141248
13.068546556234	0.70158529515269
13.028790004346	0.70164659640747
12.989274610052	0.70170767353723
12.949998185745	0.70176853481998
12.910958570198	0.70182918845139
12.872153628167	0.70188964254478
12.833581250000	0.70194990513122
12.795239351259	0.70200998415960
12.757125872340	0.70206988749667
12.719238778108	0.70212962292714
12.681576057530	0.70218919815380
12.644135723323	0.70224862079757
12.606915811606	0.70230789839764
12.569914381551	0.70236703841159
12.533129515050	0.70242604821552
12.496559316382	0.70248493510416
12.460201911887	0.70254370629104
12.424055449648	0.70260236890863
12.388118099174	0.70266093000851
12.352388051092	0.70271939656153
12.316863516845	0.70277777545798
12.281542728390	0.70283607350778
12.246423937908	0.70289429744069
12.211505417515	0.70295245390646
12.176785458976	0.70301054947510
12.142262373431	0.70306859063704
12.107934491115	0.70312658380339
12.073800161095	0.70318453530613
12.039857751004	0.70324245139837
12.006105646776	0.70330033825460
11.972542252396	0.70335820197091
11.939165989646	0.70341604856526
11.905975297855	0.70347388397776
11.872968633663	0.70353171407090
11.840144470774	0.70358954462985
11.807501299724	0.70364738136275
11.775037627651	0.70370522990096
11.742751978065	0.70376309579939
11.710642890625	0.70382098453679
11.678708920919	0.70387890151604
11.646948640249	0.70393685206446
11.615360635413	0.70399484143417
11.583943508501	0.70405287480235
11.552695876686	0.70411095727160
11.521616372022	0.70416909387028
11.490703641242	0.70422728955281
11.459956345566	0.70428554920008
11.429373160503	0.70434387761972
11.398952775665	0.70440227954650
11.368693894577	0.70446075964269
11.338595234493	0.70451932249839
11.308655526217	0.70457797263194
11.278873513920	0.70463671449024
11.249247954972	0.70469555244918
11.219777619760	0.70475449081398
11.190461291527	0.70481353381960
11.161297766195	0.70487268563110
11.132285852209	0.70493195034409
11.103424370370	0.70499133198504
11.074712153676	0.70505083451177
11.046148047163	0.70511046181379
11.017730907755	0.70517021771275
10.989459604106	0.70523010596282
10.961333016453	0.70529013025113
10.933350036470	0.70535029419818
10.905509567115	0.70541060135826
10.877810522496	0.70547105521987
10.850251827723	0.70553165920617
10.822832418773	0.70559241667540
10.795551242348	0.70565333092129
10.768407255747	0.70571440517355
10.741399426729	0.70577564259828
10.714526733381	0.70583704629840
10.687788163993	0.70589861931412
10.661182716927	0.70596036462338
10.634709400497	0.70602228514232
10.608367232838	0.70608438372569
10.582155241793	0.70614666316736
10.556072464789	0.70620912620073
10.530117948718	0.70627177549923
10.504290749825	0.70633461367675
10.478589933590	0.70639764328812
10.453014574616	0.70646086682961
10.427563756522	0.70652428673933
10.402236571825	0.70658790539774
10.377032121841	0.70665172512815
10.351949516575	0.70671574819713
10.326987874612	0.70677997681503
10.302146323024	0.70684441313646
10.277423997257	0.70690905926074
10.252820041040	0.70697391723239
10.228333606278	0.70703898904165
10.203963852961	0.70710427662489
10.179709949066	0.70716978186516
10.155571070461	0.70723550659264
10.131546400811	0.70730145258513
10.107635131490	0.70736762156854
10.083836461487	0.70743401521740
10.060149597315	0.70750063515531
10.036573752929	0.70756748295546
10.013108149633	0.70763456014108
9.9897520159947	0.70770186818600
9.9665045877660	0.70776940851507
9.9433651077944	0.70783718250470
9.9203328259431	0.70790519148332
9.8974069990096	0.70797343673191
9.8745868906456	0.70804191948445
9.8518717712783	0.70811064092845
9.8292609180328	0.70817960220541
9.8067536146549	0.70824880441136
9.7843491514360	0.70831824859730
9.7620468251384	0.70838793576974
9.7398459389214	0.70845786689116
9.7177458022690	0.70852804288053
9.6957457309185	0.70859846461378
9.6738450467893	0.70866913292432
9.6520430779137	0.70874004860352
9.6303391583681	0.70881121240118
9.6087326282051	0.70888262502607
9.5872228333866	0.70895428714638
9.5658091257179	0.70902619939026
9.5444908627826	0.70909836234623
9.5232674078780	0.70917077656377
9.5021381299525	0.70924344255373
9.4811024035421	0.70931636078888
9.4601596087094	0.70938953170434
9.4393091309824	0.70946295569812
9.4185503612944	0.70953663313157
9.3978826959248	0.70961056432990
9.3773055364404	0.70968474958263
9.3568182896380	0.70975918914411
9.3364203674868	0.70983388323397
9.3161111870727	0.70990883203763
9.2958901705426	0.70998403570675
9.2757567450495	0.71005949435976
9.2557103426984	0.71013520808228
9.2357504004929	0.71021117692764
9.2158763602828	0.71028740091735
9.1960876687117	0.71036388004156
9.1763837771656	0.71044061425954
9.1567641417227	0.71051760350017
9.1372282231027	0.71059484766237
9.1177754866180	0.71067234661561
9.0984054021244	0.71075010020038
9.0791174439733	0.71082810822862
9.0599110909640	0.71090637048420
9.0407858262967	0.71098488672341
9.0217411375263	0.71106365667539
9.0027765165165	0.71114268004259
8.9838914593947	0.71122195650125
8.9650854665072	0.71130148570185
8.9463580423754	0.71138126726954
8.9277086956522	0.71146130080462
8.9091369390788	0.71154158588299
8.8906422894425	0.71162212205659
8.8722242675348	0.71170290885383
8.8538823981099	0.71178394578007
8.8356162098438	0.71186523231804
8.8174252352941	0.71194676792829
8.7993090108600	0.71202855204962
8.7812670767428	0.71211058409952
8.7632989769073	0.71219286347461
8.7454042590432	0.71227538955106
8.7275824745269	0.71235816168504
8.7098331783847	0.71244117921311
8.6921559292549	0.71252444145270
8.6745502893519	0.71260794770249
8.6570158244297	0.71269169724284
8.6395521037464	0.71277568933621
8.6221587000288	0.71285992322759
8.6048351894374	0.71294439814489
8.5875811515325	0.71302911329936
8.5703961692396	0.71311406788602
8.5532798288160	0.71319926108401
8.5362317198178	0.71328469205707
8.5192514350668	0.71337035995387
8.5023385706183	0.71345626390846
8.4854927257288	0.71354240304062
8.4687135028249	0.71362877645630
8.4520005074711	0.71371538324798
8.4353533483399	0.71380222249505
8.4187716371806	0.71388929326423
8.4022549887892	0.71397659460993
8.3858030209790	0.71406412557461
8.3694153545505	0.71415188518919
8.3530916132627	0.71423987247343
8.3368314238042	0.71432808643625
8.3206344157646	0.71441652607615
8.3045002216066	0.71450519038156
8.2884284766381	0.71459407833117
8.2724188189845	0.71468318889434
8.2564708895621	0.71477252103143
8.2405843320506	0.71486207369416
8.2247587928669	0.71495184582595
8.2089939211391	0.71504183636228
8.1932893686800	0.71513204423103
8.1776447899618	0.71522246835282
8.1620598420909	0.71531310764134
8.1465341847826	0.71540396100371
8.1310674803363	0.71549502734080
8.1156593936113	0.71558630554755
8.1003095920022	0.71567779451330
8.0850177454153	0.71576949312213
8.0697835262450	0.71586140025314
8.0546066093498	0.71595351478083
8.0394866720300	0.71604583557536
8.0244233940043	0.71613836150287
8.0094164573871	0.71623109142580
7.9944655466667	0.71632402420321
7.9795703486825	0.71641715869104
7.9647305526036	0.71651049374243
7.9499458499072	0.71660402820802
7.9352159343568	0.71669776093623
7.9205405019815	0.71679169077356
7.9059192510549	0.71688581656487
7.8913518820742	0.71698013715365
7.8768380977404	0.71707465138232
7.8623776029373	0.71716935809247
7.8479701047120	0.71726425612519
7.8336153122550	0.71735934432129
7.8193129368805	0.71745462152156
7.8050626920073	0.71755008656707
7.7908642931393	0.71764573829941
7.7767174578470	0.71774157556095
7.7626219057483	0.71783759719508
7.7485773584906	0.71793380204645
7.7345835397317	0.71803018896127
7.7206401751223	0.71812675678748
7.7067469922879	0.71822350437503
7.6929037208109	0.71832043057612
7.6791100922131	0.71841753424540
7.6653658399386	0.71851481424025
7.6516706993364	0.71861226942093
7.6380244076433	0.71870989865089
7.6244267039674	0.71880770079691
7.6108773292714	0.71890567472937
7.5973760263558	0.71900381932244
7.5839225398432	0.71910213345427
7.5705166161616	0.71920061600723
7.5571580035291	0.71929926586811
7.5438464519376	0.71939808192829
7.5305817131374	0.71949706308395
7.5173635406219	0.71959620823625
7.5041916896120	0.71969551629157
7.4910659170415	0.71979498616162
7.4779859815415	0.71989461676366
7.4649516434263	0.71999440702070
7.4519626646781	0.72009435586162
7.4390188089330	0.72019446222140
7.4261198414664	0.72029472504124
7.4132655291790	0.72039514326875
7.4004556405826	0.72049571585811
7.3876899457861	0.72059644177023
7.3749682164822	0.72069731997289
7.3622902259332	0.72079834944092
7.3496557489581	0.72089952915630
7.3370645619187	0.72100085810836
7.3245164427071	0.72110233529388
7.3120111707317	0.72120395971727
7.2995485269053	0.72130573039066
7.2871282936315	0.72140764633406
7.2747502547925	0.72150970657548
7.2624141957364	0.72161191015104
7.2501199032648	0.72171425610514
7.2378671656205	0.72181674349053
7.2256557724753	0.72191937136843
7.2134855149182	0.72202213880869
7.2013561854432	0.72212504488982
7.1892675779376	0.72222808869919
7.1772194876706	0.72233126933303
7.1652117112811	0.72243458589663
7.1532440467669	0.72253803750437
7.1413162934731	0.72264162327982
7.1294282520809	0.72274534235585
7.1175797245964	0.72284919387473
7.1057705143399	0.72295317698817
7.0940004259347	0.72305729085743
7.0822692652965	0.72316153465340
7.0705768396226	0.72326590755664
7.0589229573817	0.72337040875751
7.0473074283028	0.72347503745620
7.0357300633654	0.72357979286278
7.0241906747891	0.72368467419730
7.0126890760234	0.72378968068983
7.0012250817375	0.72389481158053
6.9897985078107	0.72400006611968
6.9784091713222	0.72410544356775
6.9670568905415	0.72421094319542
6.9557414849188	0.72431656428368
6.9444627750753	0.72442230612381
6.9332205827937	0.72452816801746
6.9220147310090	0.72463414927667
6.9108450437990	0.72474024922388
6.8997113463751	0.72484646719203
6.8886134650735	0.72495280252449
6.8775512273457	0.72505925457518
6.8665244617499	0.72516582270853
6.8555329979419	0.72527250629950
6.8445766666667	0.72537930473364
6.8336552997493	0.72548621740706
6.8227687300865	0.72559324372646
6.8119167916383	0.72570038310914
6.8010993194192	0.72580763498299
6.7903161494904	0.72591499878651
6.7795671189507	0.72602247396880
6.7688520659291	0.72613005998956
6.7581708295762	0.72623775631909
6.7475232500563	0.72634556243827
6.7369091685393	0.72645347783855
6.7263284271932	0.72656150202196
6.7157808691756	0.72666963450108
6.7052663386267	0.72677787479900
6.6947846806610	0.72688622244935
6.6843357413601	0.72699467699621
6.6739193677649	0.72710323799415
6.6635354078684	0.72721190500819
6.6531837106081	0.72732067761370
6.6428641258586	0.72742955539649
6.6325765044248	0.72753853795266
6.6223206980340	0.72764762488863
6.6120965593295	0.72775681582109
6.6019039418630	0.72786611037693
6.5917427000879	0.72797550819324
6.5816126893524	0.72808500891723
6.5715137658922	0.72819461220619
6.5614457868243	0.72830431772747
6.5514086101399	0.72841412515837
6.5414020946978	0.72852403418613
6.5314261002179	0.72863404450787
6.5214804872743	0.72874415583051
6.5115651172893	0.72885436787073
6.5016798525266	0.72896468035490
6.4918245560849	0.72907509301901
6.4819990918919	0.72918560560862
6.4722033246978	0.72929621787877
6.4624371200690	0.72940692959394
6.4527003443823	0.72951774052793
6.4429928648184	0.72962865046384
6.4333145493562	0.72973965919396
6.4236652667667	0.72985076651971
6.4140448866068	0.72996197225155
6.4044532792138	0.73007327620889
6.3948903156997	0.73018467822004
6.3853558679446	0.73029617812210
6.3758498085921	0.73040777576088
6.3663720110427	0.73051947099080
6.3569223494487	0.73063126367484
6.3475006987084	0.73074315368441
6.3381069344609	0.73085514089927
6.3287409330800	0.73096722520743
6.3194025716695	0.73107940650508
6.3100917280572	0.73119168469648
6.3008082807902	0.73130405969383
6.2915521091291	0.73141653141724
6.2823230930427	0.73152909979455
6.2731211132036	0.73164176476129
6.2639460509820	0.73175452626054
6.2547977884415	0.73186738424287
6.2456762083333	0.73198033866617
6.2365811940919	0.73209338949559
6.2275126298297	0.73220653670342
6.2184704003319	0.73231978026898
6.2094543910522	0.73243312017851
6.2004644881075	0.73254655642505
6.1915005782734	0.73266008900835
6.1825625489792	0.73277371793474
6.1736502883031	0.73288744321701
6.1647636849681	0.73300126487431
6.1559026283368	0.73311518293201
6.1470670084068	0.73322919742162
6.1382567158067	0.73334330838065
6.1294716417910	0.73345751585248
6.1207116782360	0.73357181988626
6.1119767176351	0.73368622053677
6.1032666530945	0.73380071786433
6.0945813783289	0.73391531193464
6.0859207876573	0.73403000281869
6.0772847759984	0.73414479059261
6.0686732388664	0.73425967533756
6.0600860723671	0.73437465713962
6.0515231731934	0.73448973608962
6.0429844386212	0.73460491228307
6.0344697665056	0.73472018581998
6.0259790552764	0.73483555680479
6.0175122039342	0.73495102534618
6.0090691120465	0.73506659155699
6.0006496797438	0.73518225555408
5.9922538077154	0.73529801745818
5.9838813972056	0.73541387739380
5.9755323500100	0.73552983548908
5.9672065684713	0.73564589187563
5.9589039554760	0.73576204668847
5.9506244144502	0.73587830006583
5.9423678493558	0.73599465214906
5.9341341646873	0.73611110308250
5.9259232654675	0.73622765301333
5.9177350572444	0.73634430209145
5.9095694460871	0.73646105046935
5.9014263385827	0.73657789830197
5.8933056418321	0.73669484574660
5.8852072634472	0.73681189296270
5.8771311115468	0.73692904011181
5.8690770947533	0.73704628735740
5.8610451221896	0.73716363486475
5.8530351034752	0.73728108280081
5.8450469487229	0.73739863133408
5.8370805685358	0.73751628063446
5.8291358740035	0.73763403087314
5.8212127766990	0.73775188222247
5.8133111886756	0.73786983485583
5.8054310224632	0.73798788894748
5.7975721910656	0.73810604467245
5.7897346079567	0.73822430220641
5.7819181870781	0.73834266172555
5.7741228428351	0.73846112340644
5.7663484900942	0.73857968742588
5.7585950441798	0.73869835396083
5.7508624208709	0.73881712318823
5.7431505363985	0.73893599528491
5.7354593074421	0.73905497042744
5.7277886511272	0.73917404879202
5.7201384850219	0.73929323055434
5.7125087271341	0.73941251588949
5.7048992959087	0.73953190497179
5.6973101102242	0.73965139797471
5.6897410893908	0.73977099507070
5.6821921531463	0.73989069643114
5.6746632216544	0.74001050222615
5.6671542155009	0.74013041262449
5.6596650556919	0.74025042779347
5.6521956636501	0.74037054789882
5.6447459612126	0.74049077310452
5.6373158706281	0.74061110357277
5.6299053145540	0.74073153946381
5.6225142160540	0.74085208093583
5.6151424985952	0.74097272814486
5.6077900860456	0.74109348124464
5.6004569026714	0.74121434038652
5.5931428731343	0.74133530571935
5.5858479224893	0.74145637738937
5.5785719761816	0.74157755554008
5.5713149600446	0.74169884031218
5.5640768002970	0.74182023184339
5.5568574235403	0.74194173026843
5.5496567567568	0.74206333571884
5.5424747273063	0.74218504832293
5.5353112629247	0.74230686820565
5.5281662917204	0.74242879548847
5.5210397421731	0.74255083028935
5.5139315431304	0.74267297272255
5.5068416238060	0.74279522289861
5.4997699137773	0.74291758092420
5.4927163429828	0.74304004690206
5.4856808417200	0.74316262093088
5.4786633406433	0.74328530310522
5.4716637707611	0.74340809351543
5.4646820634342	0.74353099224753
5.4577181503732	0.74365399938314
5.4507719636364	0.74377711499941
5.4438434356274	0.74390033916890
5.4369324990932	0.74402367195950
5.4300390871219	0.74414711343437
5.4231631331404	0.74427066365186
5.4163045709124	0.74439432266538
5.4094633345363	0.74451809052338
5.4026393584430	0.74464196726925
5.3958325773938	0.74476595294122
5.3890429264785	0.74489004757234
5.3822703411131	0.74501425119035
5.3755147570378	0.74513856381763
5.3687761103152	0.74526298547117
5.3620543373278	0.74538751616242
5.3553493747767	0.74551215589729
5.3486611596789	0.74563690467607
5.3419896293656	0.74576176249335
5.3353347214807	0.74588672933798
5.3286963739780	0.74601180519297
5.3220745251198	0.74613699003548
5.3154691134752	0.74626228383675
5.3088800779175	0.74638768656201
5.3023073576229	0.74651319817047
5.2957508920685	0.74663881861526
5.2892106210303	0.74676454784334
5.2826864845815	0.74689038579550
5.2761784230905	0.74701633240630
5.2696863772192	0.74714238760400
5.2632102879213	0.74726855131056
5.2567500964405	0.74739482344154
5.2503057443082	0.74752120390613
5.2438771733427	0.74764769260705
5.2374643256464	0.74777428944055
5.2310671436050	0.74790099429635
5.2246855698850	0.74802780705763
5.2183195474326	0.74815472760098
5.2119690194715	0.74828175579640
5.2056339295016	0.74840889150723
5.1993142212973	0.74853613459016
5.1930098389052	0.74866348489517
5.1867207266436	0.74879094226554
5.1804468290997	0.74891850653784
5.1741880911288	0.74904617754185
5.1679444578521	0.74917395510061
5.1617158746556	0.74930183903037
5.1555022871883	0.74942982914058
5.1493036413604	0.74955792523387
5.1431198833419	0.74968612710609
5.1369509595613	0.74981443454622
5.1307968167037	0.74994284733643
5.1246574017094	0.75007136525207
5.1185326617722	0.75019998806161
5.1124225443383	0.75032871552672
5.1063269971044	0.75045754740222
5.1002459680163	0.75058648343608
5.0941794052676	0.75071552336945
5.0881272572980	0.75084466693667
5.0820894727920	0.75097391386525
5.0760660006773	0.75110326387590
5.0700567901235	0.75123271668254
5.0640617905405	0.75136227199230
5.0580809515775	0.75149192950556
5.0521142231210	0.75162168891596
5.0461615552937	0.75175154991040
5.0402228984533	0.75188151216907
5.0342982031906	0.75201157536551
5.0283874203287	0.75214173916658
5.0224905009214	0.75227200323251
5.0166073962517	0.75240236721694
5.0107380578305	0.75253283076693
5.0048824373957	0.75266339352301
4.9990404869101	0.75279405511918
4.9932121585610	0.75292481518301
4.9873974047579	0.75305567333561
4.9815961781323	0.75318662919170
4.9758084315353	0.75331768235966
4.9700341180371	0.75344883244154
4.9642731909256	0.75358007903315
4.9585256037049	0.75371142172405
4.9527913100942	0.75384286009765
4.9470702640264	0.75397439373124
4.9413624196473	0.75410602219602
4.9356677313138	0.75423774505719
4.9299861535932	0.75436956187396
4.9243176412615	0.75450147219967
4.9186621493027	0.75463347558178
4.9130196329072	0.75476557156197
4.9073900474709	0.75489775967618
4.9017733485939	0.75503003945471
4.8961694920790	0.75516241042221
4.8905784339315	0.75529487209785
4.8850001303569	0.75542742399528
4.8794345377604	0.75556006562279
4.8738816127459	0.75569279648330
4.8683413121143	0.75582561607451
4.8628135928629	0.75595852388892
4.8572984121841	0.75609151941391
4.8517957274640	0.75622460213185
4.8463054962819	0.75635777152013
4.8408276764088	0.75649102705128
4.8353622258065	0.75662436819305
