#Parameters = {thARC=1; nARC=2.75; thsub=1; p=1; nSub=3.5}
#"Wavelength / um"	"T (588) [Real Part]"
#---------------------------------------
14.989622900000	0.83072052207351
14.937342202292	0.83131758067230
14.885424925521	0.83191117545141
14.833867293419	0.83250124710118
14.782665581854	0.83308773648936
14.731816117936	0.83367058467092
14.681315279138	0.83424973289792
14.631159492435	0.83482512262940
14.581345233463	0.83539669554118
14.531869025691	0.83596439353582
14.482727439614	0.83652815875241
14.433917091960	0.83708793357648
14.385434644914	0.83764366064986
14.337276805356	0.83819528288052
14.289440324118	0.83874274345244
14.241921995249	0.83928598583543
14.194718655303	0.83982495379493
14.147827182633	0.84035959140185
14.101244496707	0.84088984304230
14.054967557431	0.84141565342739
14.008993364486	0.84193696760293
13.963318956684	0.84245373095913
13.917941411328	0.84296588924029
13.872857843591	0.84347338855441
13.828065405904	0.84397617538280
13.783561287356	0.84447419658963
13.739342713107	0.84496739943145
13.695406943810	0.84545573156665
13.651751275046	0.84593914106490
13.608373036768	0.84641757641652
13.565269592760	0.84689098654176
13.522438340099	0.84735932080010
13.479876708633	0.84782252899945
13.437582160466	0.84828056140528
13.395552189455	0.84873336874970
13.353784320713	0.84918090224048
13.312276110124	0.84962311356997
13.271025143869	0.85005995492398
13.230029037952	0.85049137899061
13.189285437747	0.85091733896889
13.148792017544	0.85133778857750
13.108546480105	0.85175268206327
13.068546556234	0.85216197420966
13.028790004346	0.85256562034517
12.989274610052	0.85296357635158
12.949998185745	0.85335579867220
12.910958570198	0.85374224431995
12.872153628167	0.85412287088537
12.833581250000	0.85449763654452
12.795239351259	0.85486650006678
12.757125872340	0.85522942082257
12.719238778108	0.85558635879091
12.681576057530	0.85593727456692
12.644135723323	0.85628212936919
12.606915811606	0.85662088504703
12.569914381551	0.85695350408760
12.533129515050	0.85727994962293
12.496559316382	0.85760018543683
12.460201911887	0.85791417597165
12.424055449648	0.85822188633495
12.388118099174	0.85852328230600
12.352388051092	0.85881833034216
12.316863516845	0.85910699758520
12.281542728390	0.85938925186734
12.246423937908	0.85966506171734
12.211505417515	0.85993439636626
12.176785458976	0.86019722575325
12.142262373431	0.86045352053108
12.107934491115	0.86070325207159
12.073800161095	0.86094639247097
12.039857751004	0.86118291455491
12.006105646776	0.86141279188360
11.972542252396	0.86163599875655
11.939165989646	0.86185251021732
11.905975297855	0.86206230205802
11.872968633663	0.86226535082375
11.840144470774	0.86246163381679
11.807501299724	0.86265112910069
11.775037627651	0.86283381550421
11.742751978065	0.86300967262505
11.710642890625	0.86317868083350
11.678708920919	0.86334082127583
11.646948640249	0.86349607587758
11.615360635413	0.86364442734673
11.583943508501	0.86378585917656
11.552695876686	0.86392035564852
11.521616372022	0.86404790183483
11.490703641242	0.86416848360092
11.459956345566	0.86428208760772
11.429373160503	0.86438870131382
11.398952775665	0.86448831297736
11.368693894577	0.86458091165790
11.338595234493	0.86466648721795
11.308655526217	0.86474503032448
11.278873513920	0.86481653245019
11.249247954972	0.86488098587458
11.219777619760	0.86493838368492
11.190461291527	0.86498871977702
11.161297766195	0.86503198885582
11.132285852209	0.86506818643581
11.103424370370	0.86509730884128
11.074712153676	0.86511935320645
11.046148047163	0.86513431747531
11.017730907755	0.86514220040145
10.989459604106	0.86514300154758
10.961333016453	0.86513672128496
10.933350036470	0.86512336079261
10.905509567115	0.86510292205642
10.877810522496	0.86507540786805
10.850251827723	0.86504082182361
10.822832418773	0.86499916832229
10.795551242348	0.86495045256474
10.768407255747	0.86489468055129
10.741399426729	0.86483185908004
10.714526733381	0.86476199574477
10.687788163993	0.86468509893268
10.661182716927	0.86460117782196
10.634709400497	0.86451024237926
10.608367232838	0.86441230335689
10.582155241793	0.86430737228997
10.556072464789	0.86419546149337
10.530117948718	0.86407658405850
10.504290749825	0.86395075384994
10.478589933590	0.86381798550193
10.453014574616	0.86367829441472
10.427563756522	0.86353169675073
10.402236571825	0.86337820943058
10.377032121841	0.86321785012901
10.351949516575	0.86305063727058
10.326987874612	0.86287659002530
10.302146323024	0.86269572830406
10.277423997257	0.86250807275397
10.252820041040	0.86231364475351
10.228333606278	0.86211246640758
10.203963852961	0.86190456054241
10.179709949066	0.86168995070032
10.155571070461	0.86146866113437
10.131546400811	0.86124071680286
10.107635131490	0.86100614336371
10.083836461487	0.86076496716874
10.060149597315	0.86051721525779
10.036573752929	0.86026291535274
10.013108149633	0.86000209585139
9.9897520159947	0.85973478582128
9.9665045877660	0.85946101499331
9.9433651077944	0.85918081375533
9.9203328259431	0.85889421314557
9.8974069990096	0.85860124484597
9.8745868906456	0.85830194117545
9.8518717712783	0.85799633508299
9.8292609180328	0.85768446014070
9.8067536146549	0.85736635053674
9.7843491514360	0.85704204106818
9.7620468251384	0.85671156713370
9.7398459389214	0.85637496472630
9.7177458022690	0.85603227042584
9.6957457309185	0.85568352139153
9.6738450467893	0.85532875535433
9.6520430779137	0.85496801060929
9.6303391583681	0.85460132600779
9.6087326282051	0.85422874094969
9.5872228333866	0.85385029537544
9.5658091257179	0.85346602975816
9.5444908627826	0.85307598509550
9.5232674078780	0.85268020290166
9.5021381299525	0.85227872519913
9.4811024035421	0.85187159451053
9.4601596087094	0.85145885385031
9.4393091309824	0.85104054671642
9.4185503612944	0.85061671708196
9.3978826959248	0.85018740938670
9.3773055364404	0.84975266852865
9.3568182896380	0.84931253985554
9.3364203674868	0.84886706915624
9.3161111870727	0.84841630265218
9.2958901705426	0.84796028698875
9.2757567450495	0.84749906922659
9.2557103426984	0.84703269683293
9.2357504004929	0.84656121767289
9.2158763602828	0.84608468000069
9.1960876687117	0.84560313245096
9.1763837771656	0.84511662402987
9.1567641417227	0.84462520410642
9.1372282231027	0.84412892240358
9.1177754866180	0.84362782898946
9.0984054021244	0.84312197426853
9.0791174439733	0.84261140897272
9.0599110909640	0.84209618415263
9.0407858262967	0.84157635116866
9.0217411375263	0.84105196168217
9.0027765165165	0.84052306764666
8.9838914593947	0.83998972129891
8.9650854665072	0.83945197515019
8.9463580423754	0.83890988197742
8.9277086956522	0.83836349481439
8.9091369390788	0.83781286694295
8.8906422894425	0.83725805188427
8.8722242675348	0.83669910339010
8.8538823981099	0.83613607543400
8.8356162098438	0.83556902220270
8.8174252352941	0.83499799808736
8.7993090108600	0.83442305767500
8.7812670767428	0.83384425573981
8.7632989769073	0.83326164723464
8.7454042590432	0.83267528728240
8.7275824745269	0.83208523116757
8.7098331783847	0.83149153432773
8.6921559292549	0.83089425234515
8.6745502893519	0.83029344093837
8.6570158244297	0.82968915595386
8.6395521037464	0.82908145335775
8.6221587000288	0.82847038922757
8.6048351894374	0.82785601974404
8.5875811515325	0.82723840118297
8.5703961692396	0.82661758990709
8.5532798288160	0.82599364235808
8.5362317198178	0.82536661504859
8.5192514350668	0.82473656455426
8.5023385706183	0.82410354750593
8.4854927257288	0.82346762058178
8.4687135028249	0.82282884049965
8.4520005074711	0.82218726400932
8.4353533483399	0.82154294788492
8.4187716371806	0.82089594891742
8.4022549887892	0.82024632390710
8.3858030209790	0.81959412965622
8.3694153545505	0.81893942296162
8.3530916132627	0.81828226060751
8.3368314238042	0.81762269935828
8.3206344157646	0.81696079595139
8.3045002216066	0.81629660709030
8.2884284766381	0.81563018943757
8.2724188189845	0.81496159960795
8.2564708895621	0.81429089416160
8.2405843320506	0.81361812959732
8.2247587928669	0.81294336234597
8.2089939211391	0.81226664876389
8.1932893686800	0.81158804512640
8.1776447899618	0.81090760762145
8.1620598420909	0.81022539234328
8.1465341847826	0.80954145528619
8.1310674803363	0.80885585233845
8.1156593936113	0.80816863927617
8.1003095920022	0.80747987175739
8.0850177454153	0.80678960531619
8.0697835262450	0.80609789535689
8.0546066093498	0.80540479714833
8.0394866720300	0.80471036581828
8.0244233940043	0.80401465634791
8.0094164573871	0.80331772356631
7.9944655466667	0.80261962214521
7.9795703486825	0.80192040659367
7.9647305526036	0.80122013125292
7.9499458499072	0.80051885029130
7.9352159343568	0.79981661769925
7.9205405019815	0.79911348728442
7.9059192510549	0.79840951266689
7.8913518820742	0.79770474727439
7.8768380977404	0.79699924433776
7.8623776029373	0.79629305688635
7.8479701047120	0.79558623774359
7.8336153122550	0.79487883952269
7.8193129368805	0.79417091462230
7.8050626920073	0.79346251522241
7.7908642931393	0.79275369328024
7.7767174578470	0.79204450052625
7.7626219057483	0.79133498846027
7.7485773584906	0.79062520834765
7.7345835397317	0.78991521121558
7.7206401751223	0.78920504784947
7.7067469922879	0.78849476878938
7.6929037208109	0.78778442432659
7.6791100922131	0.78707406450026
7.6653658399386	0.78636373909413
7.6516706993364	0.78565349763334
7.6380244076433	0.78494338938139
7.6244267039674	0.78423346333707
7.6108773292714	0.78352376823155
7.5973760263558	0.78281435252560
7.5839225398432	0.78210526440678
7.5705166161616	0.78139655178684
7.5571580035291	0.78068826229909
7.5438464519376	0.77998044329594
7.5305817131374	0.77927314184649
7.5173635406219	0.77856640473421
7.5041916896120	0.77786027845468
7.4910659170415	0.77715480921348
7.4779859815415	0.77645004292405
7.4649516434263	0.77574602520573
7.4519626646781	0.77504280138186
7.4390188089330	0.77434041647790
7.4261198414664	0.77363891521971
7.4132655291790	0.77293834203186
7.4004556405826	0.77223874103603
7.3876899457861	0.77154015604947
7.3749682164822	0.77084263058358
7.3622902259332	0.77014620784251
7.3496557489581	0.76945093072188
7.3370645619187	0.76875684180754
7.3245164427071	0.76806398337442
7.3120111707317	0.76737239738545
7.2995485269053	0.76668212549055
7.2871282936315	0.76599320902571
7.2747502547925	0.76530568901209
7.2624141957364	0.76461960615521
7.2501199032648	0.76393500084426
7.2378671656205	0.76325191315141
7.2256557724753	0.76257038283119
7.2134855149182	0.76189044931997
7.2013561854432	0.76121215173551
7.1892675779376	0.76053552887652
7.1772194876706	0.75986061922231
7.1652117112811	0.75918746093255
7.1532440467669	0.75851609184700
7.1413162934731	0.75784654948535
7.1294282520809	0.75717887104714
7.1175797245964	0.75651309341171
7.1057705143399	0.75584925313818
7.0940004259347	0.75518738646553
7.0822692652965	0.75452752931275
7.0705768396226	0.75386971727896
7.0589229573817	0.75321398564368
7.0473074283028	0.75256036936710
7.0357300633654	0.75190890309040
7.0241906747891	0.75125962113615
7.0126890760234	0.75061255750872
7.0012250817375	0.74996774589478
6.9897985078107	0.74932521966381
6.9784091713222	0.74868501186869
6.9670568905415	0.74804715524632
6.9557414849188	0.74741168221825
6.9444627750753	0.74677862489146
6.9332205827937	0.74614801505904
6.9220147310090	0.74551988420100
6.9108450437990	0.74489426348515
6.8997113463751	0.74427118376793
6.8886134650735	0.74365067559533
6.8775512273457	0.74303276920384
6.8665244617499	0.74241749452148
6.8555329979419	0.74180488116877
6.8445766666667	0.74119495845984
6.8336552997493	0.74058775540348
6.8227687300865	0.73998330070431
6.8119167916383	0.73938162276395
6.8010993194192	0.73878274968216
6.7903161494904	0.73818670925813
6.7795671189507	0.73759352899172
6.7688520659291	0.73700323608471
6.7581708295762	0.73641585744216
6.7475232500563	0.73583141967376
6.7369091685393	0.73524994909514
6.7263284271932	0.73467147172934
6.7157808691756	0.73409601330817
6.7052663386267	0.73352359927370
6.6947846806610	0.73295425477971
6.6843357413601	0.73238800469320
6.6739193677649	0.73182487359585
6.6635354078684	0.73126488578565
6.6531837106081	0.73070806527834
6.6428641258586	0.73015443580911
6.6325765044248	0.72960402083408
6.6223206980340	0.72905684353198
6.6120965593295	0.72851292680577
6.6019039418630	0.72797229328428
6.5917427000879	0.72743496532384
6.5816126893524	0.72690096501002
6.5715137658922	0.72637031415926
6.5614457868243	0.72584303432062
6.5514086101399	0.72531914677745
6.5414020946978	0.72479867254917
6.5314261002179	0.72428163239298
6.5214804872743	0.72376804680559
6.5115651172893	0.72325793602504
6.5016798525266	0.72275132003242
6.4918245560849	0.72224821855365
6.4819990918919	0.72174865106131
6.4722033246978	0.72125263677637
6.4624371200690	0.72076019467005
6.4527003443823	0.72027134346558
6.4429928648184	0.71978610164005
6.4333145493562	0.71930448742617
6.4236652667667	0.71882651881417
6.4140448866068	0.71835221355355
6.4044532792138	0.71788158915494
6.3948903156997	0.71741466289193
6.3853558679446	0.71695145180288
6.3758498085921	0.71649197269277
6.3663720110427	0.71603624213504
6.3569223494487	0.71558427647339
6.3475006987084	0.71513609182363
6.3381069344609	0.71469170407551
6.3287409330800	0.71425112889454
6.3194025716695	0.71381438172384
6.3100917280572	0.71338147778592
6.3008082807902	0.71295243208454
6.2915521091291	0.71252725940650
6.2823230930427	0.71210597432346
6.2731211132036	0.71168859119375
6.2639460509820	0.71127512416418
6.2547977884415	0.71086558717181
6.2456762083333	0.71045999394576
6.2365811940919	0.71005835800899
6.2275126298297	0.70966069268007
6.2184704003319	0.70926701107495
6.2094543910522	0.70887732610872
6.2004644881075	0.70849165049737
6.1915005782734	0.70810999675952
6.1825625489792	0.70773237721817
6.1736502883031	0.70735880400240
6.1647636849681	0.70698928904910
6.1559026283368	0.70662384410468
6.1470670084068	0.70626248072676
6.1382567158067	0.70590521028582
6.1294716417910	0.70555204396690
6.1207116782360	0.70520299277129
6.1119767176351	0.70485806751808
6.1032666530945	0.70451727884590
6.0945813783289	0.70418063721446
6.0859207876573	0.70384815290620
6.0772847759984	0.70351983602786
6.0686732388664	0.70319569651209
6.0600860723671	0.70287574411897
6.0515231731934	0.70255998843758
6.0429844386212	0.70224843888755
6.0344697665056	0.70194110472057
6.0259790552764	0.70163799502188
6.0175122039342	0.70133911871176
6.0090691120465	0.70104448454702
6.0006496797438	0.70075410112245
5.9922538077154	0.70046797687226
5.9838813972056	0.70018612007146
5.9755323500100	0.69990853883735
5.9672065684713	0.69963524113082
5.9589039554760	0.69936623475779
5.9506244144502	0.69910152737049
5.9423678493558	0.69884112646887
5.9341341646873	0.69858503940186
5.9259232654675	0.69833327336869
5.9177350572444	0.69808583542017
5.9095694460871	0.69784273245992
5.9014263385827	0.69760397124565
5.8933056418321	0.69736955839036
5.8852072634472	0.69713950036354
5.8771311115468	0.69691380349235
5.8690770947533	0.69669247396277
5.8610451221896	0.69647551782077
5.8530351034752	0.69626294097342
5.8450469487229	0.69605474918996
5.8370805685358	0.69585094810291
5.8291358740035	0.69565154320912
5.8212127766990	0.69545653987080
5.8133111886756	0.69526594331656
5.8054310224632	0.69507975864236
5.7975721910656	0.69489799081252
5.7897346079567	0.69472064466066
5.7819181870781	0.69454772489062
5.7741228428351	0.69437923607737
5.7663484900942	0.69421518266792
5.7585950441798	0.69405556898215
5.7508624208709	0.69390039921367
5.7431505363985	0.69374967743062
5.7354593074421	0.69360340757649
5.7277886511272	0.69346159347087
5.7201384850219	0.69332423881024
5.7125087271341	0.69319134716863
5.7048992959087	0.69306292199839
5.6973101102242	0.69293896663083
5.6897410893908	0.69281948427692
5.6821921531463	0.69270447802788
5.6746632216544	0.69259395085581
5.6671542155009	0.69248790561428
5.6596650556919	0.69238634503891
5.6521956636501	0.69228927174789
5.6447459612126	0.69219668824251
5.6373158706281	0.69210859690763
5.6299053145540	0.69202500001221
5.6225142160540	0.69194589970968
5.6151424985952	0.69187129803841
5.6077900860456	0.69180119692213
5.6004569026714	0.69173559817025
5.5931428731343	0.69167450347823
5.5858479224893	0.69161791442795
5.5785719761816	0.69156583248794
5.5713149600446	0.69151825901373
5.5640768002970	0.69147519524805
5.5568574235403	0.69143664232112
5.5496567567568	0.69140260125077
5.5424747273063	0.69137307294273
5.5353112629247	0.69134805819069
5.5281662917204	0.69132755767652
5.5210397421731	0.69131157197029
5.5139315431304	0.69130010153045
5.5068416238060	0.69129314670381
5.4997699137773	0.69129070772565
5.4927163429828	0.69129278471967
5.4856808417200	0.69129937769802
5.4786633406433	0.69131048656123
5.4716637707611	0.69132611109821
5.4646820634342	0.69134625098609
5.4577181503732	0.69137090579017
5.4507719636364	0.69140007496376
5.4438434356274	0.69143375784805
5.4369324990932	0.69147195367189
5.4300390871219	0.69151466155161
5.4231631331404	0.69156188049080
5.4163045709124	0.69161360938004
5.4094633345363	0.69166984699663
5.4026393584430	0.69173059200429
5.3958325773938	0.69179584295283
5.3890429264785	0.69186559827782
5.3822703411131	0.69193985630019
5.3755147570378	0.69201861522586
5.3687761103152	0.69210187314529
5.3620543373278	0.69218962803307
5.3553493747767	0.69228187774745
5.3486611596789	0.69237862002981
5.3419896293656	0.69247985250420
5.3353347214807	0.69258557267676
5.3286963739780	0.69269577793518
5.3220745251198	0.69281046554813
5.3154691134752	0.69292963266460
5.3088800779175	0.69305327631335
5.3023073576229	0.69318139340217
5.2957508920685	0.69331398071727
5.2892106210303	0.69345103492256
5.2826864845815	0.69359255255891
5.2761784230905	0.69373853004345
5.2696863772192	0.69388896366875
5.2632102879213	0.69404384960206
5.2567500964405	0.69420318388451
5.2503057443082	0.69436696243025
5.2438771733427	0.69453518102562
5.2374643256464	0.69470783532825
5.2310671436050	0.69488492086618
5.2246855698850	0.69506643303693
5.2183195474326	0.69525236710654
5.2119690194715	0.69544271820866
5.2056339295016	0.69563748134351
5.1993142212973	0.69583665137689
5.1930098389052	0.69604022303917
5.1867207266436	0.69624819092425
5.1804468290997	0.69646054948843
5.1741880911288	0.69667729304941
5.1679444578521	0.69689841578510
5.1617158746556	0.69712391173257
5.1555022871883	0.69735377478683
5.1493036413604	0.69758799869970
5.1431198833419	0.69782657707861
5.1369509595613	0.69806950338542
5.1307968167037	0.69831677093514
5.1246574017094	0.69856837289476
5.1185326617722	0.69882430228189
5.1124225443383	0.69908455196357
5.1063269971044	0.69934911465493
5.1002459680163	0.69961798291785
5.0941794052676	0.69989114915967
5.0881272572980	0.70016860563179
5.0820894727920	0.70045034442835
5.0760660006773	0.70073635748478
5.0700567901235	0.70102663657645
5.0640617905405	0.70132117331723
5.0580809515775	0.70161995915803
5.0521142231210	0.70192298538538
5.0461615552937	0.70223024311992
5.0402228984533	0.70254172331497
5.0342982031906	0.70285741675497
5.0283874203287	0.70317731405402
5.0224905009214	0.70350140565428
5.0166073962517	0.70382968182451
5.0107380578305	0.70416213265845
5.0048824373957	0.70449874807325
4.9990404869101	0.70483951780792
4.9932121585610	0.70518443142170
4.9873974047579	0.70553347829246
4.9815961781323	0.70588664761507
4.9758084315353	0.70624392839979
4.9700341180371	0.70660530947055
4.9642731909256	0.70697077946339
4.9585256037049	0.70734032682471
4.9527913100942	0.70771393980963
4.9470702640264	0.70809160648026
4.9413624196473	0.70847331470407
4.9356677313138	0.70885905215208
4.9299861535932	0.70924880629724
4.9243176412615	0.70964256441261
4.9186621493027	0.71004031356971
4.9130196329072	0.71044204063669
4.9073900474709	0.71084773227666
4.9017733485939	0.71125737494584
4.8961694920790	0.71167095489189
4.8905784339315	0.71208845815205
4.8850001303569	0.71250987055143
4.8794345377604	0.71293517770119
4.8738816127459	0.71336436499676
4.8683413121143	0.71379741761603
4.8628135928629	0.71423432051759
4.8572984121841	0.71467505843892
4.8517957274640	0.71511961589454
4.8463054962819	0.71556797717428
4.8408276764088	0.71602012634143
4.8353622258065	0.71647604723091
