#Parameters = {thARC=1; nARC=3; thsub=1; p=1; nSub=3.5}
#"Wavelength / um"	"T (594) [Real Part]"
#---------------------------------------
14.989622900000	0.79385176748147
14.937342202292	0.79419429843293
14.885424925521	0.79453246594228
14.833867293419	0.79486625021703
14.782665581854	0.79519563156839
14.731816117936	0.79552059041785
14.681315279138	0.79584110730398
14.631159492435	0.79615716288909
14.581345233463	0.79646873796597
14.531869025691	0.79677581346464
14.482727439614	0.79707837045908
14.433917091960	0.79737639017398
14.385434644914	0.79766985399149
14.337276805356	0.79795874345796
14.289440324118	0.79824304029066
14.241921995249	0.79852272638456
14.194718655303	0.79879778381903
14.147827182633	0.79906819486454
14.101244496707	0.79933394198939
14.054967557431	0.79959500786637
14.008993364486	0.79985137537946
13.963318956684	0.80010302763044
13.917941411328	0.80034994794551
13.872857843591	0.80059211988191
13.828065405904	0.80082952723450
13.783561287356	0.80106215404223
13.739342713107	0.80128998459472
13.695406943810	0.80151300343867
13.651751275046	0.80173119538431
13.608373036768	0.80194454551178
13.565269592760	0.80215303917751
13.522438340099	0.80235666202045
13.479876708633	0.80255539996837
13.437582160466	0.80274923924404
13.395552189455	0.80293816637141
13.353784320713	0.80312216818164
13.312276110124	0.80330123181918
13.271025143869	0.80347534474772
13.230029037952	0.80364449475614
13.189285437747	0.80380866996430
13.148792017544	0.80396785882885
13.108546480105	0.80412205014895
13.068546556234	0.80427123307189
13.028790004346	0.80441539709866
12.989274610052	0.80455453208943
12.949998185745	0.80468862826900
12.910958570198	0.80481767623207
12.872153628167	0.80494166694855
12.833581250000	0.80506059176868
12.795239351259	0.80517444242814
12.757125872340	0.80528321105301
12.719238778108	0.80538689016469
12.681576057530	0.80548547268471
12.644135723323	0.80557895193942
12.606915811606	0.80566732166463
12.569914381551	0.80575057601013
12.533129515050	0.80582870954410
12.496559316382	0.80590171725740
12.460201911887	0.80596959456785
12.424055449648	0.80603233732430
12.388118099174	0.80608994181061
12.352388051092	0.80614240474960
12.316863516845	0.80618972330681
12.281542728390	0.80623189509415
12.246423937908	0.80626891817352
12.211505417515	0.80630079106021
12.176785458976	0.80632751272624
12.142262373431	0.80634908260360
12.107934491115	0.80636550058734
12.073800161095	0.80637676703853
12.039857751004	0.80638288278715
12.006105646776	0.80638384913482
11.972542252396	0.80637966785739
11.939165989646	0.80637034120747
11.905975297855	0.80635587191679
11.872968633663	0.80633626319843
11.840144470774	0.80631151874896
11.807501299724	0.80628164275038
11.775037627651	0.80624663987208
11.742751978065	0.80620651527249
11.710642890625	0.80616127460070
11.678708920919	0.80611092399799
11.646948640249	0.80605547009913
11.615360635413	0.80599492003360
11.583943508501	0.80592928142671
11.552695876686	0.80585856240054
11.521616372022	0.80578277157474
11.490703641242	0.80570191806728
11.459956345566	0.80561601149497
11.429373160503	0.80552506197390
11.398952775665	0.80542908011975
11.368693894577	0.80532807704796
11.338595234493	0.80522206437376
11.308655526217	0.80511105421207
11.278873513920	0.80499505917731
11.249247954972	0.80487409238298
11.219777619760	0.80474816744125
11.190461291527	0.80461729846228
11.161297766195	0.80448150005351
11.132285852209	0.80434078731878
11.103424370370	0.80419517585730
11.074712153676	0.80404468176257
11.046148047163	0.80388932162107
11.017730907755	0.80372911251088
10.989459604106	0.80356407200021
10.961333016453	0.80339421814570
10.933350036470	0.80321956949073
10.905509567115	0.80304014506346
10.877810522496	0.80285596437487
10.850251827723	0.80266704741661
10.822832418773	0.80247341465878
10.795551242348	0.80227508704751
10.768407255747	0.80207208600253
10.741399426729	0.80186443341450
10.714526733381	0.80165215164236
10.687788163993	0.80143526351045
10.661182716927	0.80121379230558
10.634709400497	0.80098776177395
10.608367232838	0.80075719611802
10.582155241793	0.80052211999318
10.556072464789	0.80028255850442
10.530117948718	0.80003853720280
10.504290749825	0.79979008208185
10.478589933590	0.79953721957393
10.453014574616	0.79927997654633
10.427563756522	0.79901838029749
10.402236571825	0.79875245855291
10.377032121841	0.79848223946110
10.351949516575	0.79820775158940
10.326987874612	0.79792902391969
10.302146323024	0.79764608584401
10.277423997257	0.79735896716016
10.252820041040	0.79706769806706
10.228333606278	0.79677230916025
10.203963852961	0.79647283142705
10.179709949066	0.79616929624187
10.155571070461	0.79586173536131
10.131546400811	0.79555018091920
10.107635131490	0.79523466542158
10.083836461487	0.79491522174165
10.060149597315	0.79459188311456
10.036573752929	0.79426468313223
10.013108149633	0.79393365573799
9.9897520159947	0.79359883522128
9.9665045877660	0.79326025621221
9.9433651077944	0.79291795367605
9.9203328259431	0.79257196290774
9.8974069990096	0.79222231952627
9.8745868906456	0.79186905946904
9.8518717712783	0.79151221898614
9.8292609180328	0.79115183463466
9.8067536146549	0.79078794327281
9.7843491514360	0.79042058205419
9.7620468251384	0.79004978842181
9.7398459389214	0.78967560010225
9.7177458022690	0.78929805509964
9.6957457309185	0.78891719168972
9.6738450467893	0.78853304841378
9.6520430779137	0.78814566407262
9.6303391583681	0.78775507772045
9.6087326282051	0.78736132865881
9.5872228333866	0.78696445643037
9.5658091257179	0.78656450081285
9.5444908627826	0.78616150181279
9.5232674078780	0.78575549965934
9.5021381299525	0.78534653479810
9.4811024035421	0.78493464788484
9.4601596087094	0.78451987977929
9.4393091309824	0.78410227153887
9.4185503612944	0.78368186441247
9.3978826959248	0.78325869983414
9.3773055364404	0.78283281941685
9.3568182896380	0.78240426494621
9.3364203674868	0.78197307837423
9.3161111870727	0.78153930181301
9.2958901705426	0.78110297752853
9.2757567450495	0.78066414793436
9.2557103426984	0.78022285558541
9.2357504004929	0.77977914317173
9.2158763602828	0.77933305351224
9.1960876687117	0.77888462954857
9.1763837771656	0.77843391433882
9.1567641417227	0.77798095105139
9.1372282231027	0.77752578295887
9.1177754866180	0.77706845343184
9.0984054021244	0.77660900593278
9.0791174439733	0.77614748400998
9.0599110909640	0.77568393129149
9.0407858262967	0.77521839147907
9.0217411375263	0.77475090834215
9.0027765165165	0.77428152571192
8.9838914593947	0.77381028747534
8.9650854665072	0.77333723756922
8.9463580423754	0.77286241997439
8.9277086956522	0.77238587870980
8.9091369390788	0.77190765782678
8.8906422894425	0.77142780140322
8.8722242675348	0.77094635353792
8.8538823981099	0.77046335834482
8.8356162098438	0.76997885994743
8.8174252352941	0.76949290247323
8.7993090108600	0.76900553004811
8.7812670767428	0.76851678679087
8.7632989769073	0.76802671680776
8.7454042590432	0.76753536418712
8.7275824745269	0.76704277299398
8.7098331783847	0.76654898726479
8.6921559292549	0.76605405100215
8.6745502893519	0.76555800816963
8.6570158244297	0.76506090268664
8.6395521037464	0.76456277842330
8.6221587000288	0.76406367919547
8.6048351894374	0.76356364875973
8.5875811515325	0.76306273080846
8.5703961692396	0.76256096896504
8.5532798288160	0.76205840677898
8.5362317198178	0.76155508772124
8.5192514350668	0.76105105517950
8.5023385706183	0.76054635245358
8.4854927257288	0.76004102275087
8.4687135028249	0.75953510918184
8.4520005074711	0.75902865475560
8.4353533483399	0.75852170237553
8.4187716371806	0.75801429483499
8.4022549887892	0.75750647481308
8.3858030209790	0.75699828487043
8.3694153545505	0.75648976744514
8.3530916132627	0.75598096484870
8.3368314238042	0.75547191926199
8.3206344157646	0.75496267273143
8.3045002216066	0.75445326716508
8.2884284766381	0.75394374432885
8.2724188189845	0.75343414584282
8.2564708895621	0.75292451317757
8.2405843320506	0.75241488765060
8.2247587928669	0.75190531042282
8.2089939211391	0.75139582249506
8.1932893686800	0.75088646470477
8.1776447899618	0.75037727772262
8.1620598420909	0.74986830204930
8.1465341847826	0.74935957801232
8.1310674803363	0.74885114576289
8.1156593936113	0.74834304527291
8.1003095920022	0.74783531633193
8.0850177454153	0.74732799854427
8.0697835262450	0.74682113132619
8.0546066093498	0.74631475390306
8.0394866720300	0.74580890530667
8.0244233940043	0.74530362437258
8.0094164573871	0.74479894973755
7.9944655466667	0.74429491983698
7.9795703486825	0.74379157290250
7.9647305526036	0.74328894695954
7.9499458499072	0.74278707982503
7.9352159343568	0.74228600910514
7.9205405019815	0.74178577219309
7.9059192510549	0.74128640626696
7.8913518820742	0.74078794828770
7.8768380977404	0.74029043499707
7.8623776029373	0.73979390291570
7.8479701047120	0.73929838834122
7.8336153122550	0.73880392734643
7.8193129368805	0.73831055577752
7.8050626920073	0.73781830925241
7.7908642931393	0.73732722315906
7.7767174578470	0.73683733265392
7.7626219057483	0.73634867266036
7.7485773584906	0.73586127786729
7.7345835397317	0.73537518272765
7.7206401751223	0.73489042145712
7.7067469922879	0.73440702803283
7.6929037208109	0.73392503619206
7.6791100922131	0.73344447943113
7.6653658399386	0.73296539100421
7.6516706993364	0.73248780392229
7.6380244076433	0.73201175095213
7.6244267039674	0.73153726461529
7.6108773292714	0.73106437718723
7.5973760263558	0.73059312069643
7.5839225398432	0.73012352692358
7.5705166161616	0.72965562740080
7.5571580035291	0.72918945341097
7.5438464519376	0.72872503598700
7.5305817131374	0.72826240591126
7.5173635406219	0.72780159371497
7.5041916896120	0.72734262967773
7.4910659170415	0.72688554382696
7.4779859815415	0.72643036593756
7.4649516434263	0.72597712553144
7.4519626646781	0.72552585187723
7.4390188089330	0.72507657398993
7.4261198414664	0.72462932063069
7.4132655291790	0.72418412030660
7.4004556405826	0.72374100127045
7.3876899457861	0.72329999152066
7.3749682164822	0.72286111880113
7.3622902259332	0.72242441060125
7.3496557489581	0.72198989415579
7.3370645619187	0.72155759644499
7.3245164427071	0.72112754419456
7.3120111707317	0.72069976387582
7.2995485269053	0.72027428170578
7.2871282936315	0.71985112364731
7.2747502547925	0.71943031540935
7.2624141957364	0.71901188244710
7.2501199032648	0.71859584996232
7.2378671656205	0.71818224290358
7.2256557724753	0.71777108596660
7.2134855149182	0.71736240359457
7.2013561854432	0.71695621997856
7.1892675779376	0.71655255905794
7.1772194876706	0.71615144452074
7.1652117112811	0.71575289980420
7.1532440467669	0.71535694809518
7.1413162934731	0.71496361233075
7.1294282520809	0.71457291519864
7.1175797245964	0.71418487913788
7.1057705143399	0.71379952633934
7.0940004259347	0.71341687874635
7.0822692652965	0.71303695805533
7.0705768396226	0.71265978571646
7.0589229573817	0.71228538293432
7.0473074283028	0.71191377066858
7.0357300633654	0.71154496963476
7.0241906747891	0.71117900030492
7.0126890760234	0.71081588290841
7.0012250817375	0.71045563743264
6.9897985078107	0.71009828362388
6.9784091713222	0.70974384098804
6.9670568905415	0.70939232879148
6.9557414849188	0.70904376606187
6.9444627750753	0.70869817158898
6.9332205827937	0.70835556392559
6.9220147310090	0.70801596138834
6.9108450437990	0.70767938205858
6.8997113463751	0.70734584378332
6.8886134650735	0.70701536417610
6.8775512273457	0.70668796061791
6.8665244617499	0.70636365025812
6.8555329979419	0.70604245001539
6.8445766666667	0.70572437657866
6.8336552997493	0.70540944640807
6.8227687300865	0.70509767573592
6.8119167916383	0.70478908056762
6.8010993194192	0.70448367668272
6.7903161494904	0.70418147963582
6.7795671189507	0.70388250475758
6.7688520659291	0.70358676715574
6.7581708295762	0.70329428171607
6.7475232500563	0.70300506310335
6.7369091685393	0.70271912576245
6.7263284271932	0.70243648391926
6.7157808691756	0.70215715158170
6.7052663386267	0.70188114254077
6.6947846806610	0.70160847037152
6.6843357413601	0.70133914843407
6.6739193677649	0.70107318987462
6.6635354078684	0.70081060762647
6.6531837106081	0.70055141441099
6.6428641258586	0.70029562273867
6.6325765044248	0.70004324491012
6.6223206980340	0.69979429301705
6.6120965593295	0.69954877894328
6.6019039418630	0.69930671436574
6.5917427000879	0.69906811075549
6.5816126893524	0.69883297937867
6.5715137658922	0.69860133129751
6.5614457868243	0.69837317737133
6.5514086101399	0.69814852825747
6.5414020946978	0.69792739441231
6.5314261002179	0.69770978609222
6.5214804872743	0.69749571335453
6.5115651172893	0.69728518605844
6.5016798525266	0.69707821386605
6.4918245560849	0.69687480624322
6.4819990918919	0.69667497246058
6.4722033246978	0.69647872159438
6.4624371200690	0.69628606252746
6.4527003443823	0.69609700395015
6.4429928648184	0.69591155436116
6.4333145493562	0.69572972206846
6.4236652667667	0.69555151519022
6.4140448866068	0.69537694165560
6.4044532792138	0.69520600920568
6.3948903156997	0.69503872539429
6.3853558679446	0.69487509758882
6.3758498085921	0.69471513297112
6.3663720110427	0.69455883853824
6.3569223494487	0.69440622110332
6.3475006987084	0.69425728729631
6.3381069344609	0.69411204356480
6.3287409330800	0.69397049617480
6.3194025716695	0.69383265121146
6.3100917280572	0.69369851457985
6.3008082807902	0.69356809200568
6.2915521091291	0.69344138903603
6.2823230930427	0.69331841104006
6.2731211132036	0.69319916320968
6.2639460509820	0.69308365056027
6.2547977884415	0.69297187793131
6.2456762083333	0.69286384998707
6.2365811940919	0.69275957121719
6.2275126298297	0.69265904593738
6.2184704003319	0.69256227828997
6.2094543910522	0.69246927224451
6.2004644881075	0.69238003159838
6.1915005782734	0.69229455997734
6.1825625489792	0.69221286083604
6.1736502883031	0.69213493745862
6.1647636849681	0.69206079295917
6.1559026283368	0.69199043028226
6.1470670084068	0.69192385220340
6.1382567158067	0.69186106132956
6.1294716417910	0.69180206009953
6.1207116782360	0.69174685078447
6.1119767176351	0.69169543548823
6.1032666530945	0.69164781614781
6.0945813783289	0.69160399453372
6.0859207876573	0.69156397225035
6.0772847759984	0.69152775073634
6.0686732388664	0.69149533126489
6.0600860723671	0.69146671494410
6.0515231731934	0.69144190271725
6.0429844386212	0.69142089536308
6.0344697665056	0.69140369349607
6.0259790552764	0.69139029756670
6.0175122039342	0.69138070786163
6.0090691120465	0.69137492450397
6.0006496797438	0.69137294745342
5.9922538077154	0.69137477650650
5.9838813972056	0.69138041129666
5.9755323500100	0.69138985129446
5.9672065684713	0.69140309580765
5.9589039554760	0.69142014398131
5.9506244144502	0.69144099479795
5.9423678493558	0.69146564707752
5.9341341646873	0.69149409947750
5.9259232654675	0.69152635049295
5.9177350572444	0.69156239845647
5.9095694460871	0.69160224153826
5.9014263385827	0.69164587774603
5.8933056418321	0.69169330492503
5.8852072634472	0.69174452075794
5.8771311115468	0.69179952276481
5.8690770947533	0.69185830830298
5.8610451221896	0.69192087456695
5.8530351034752	0.69198721858824
5.8450469487229	0.69205733723530
5.8370805685358	0.69213122721325
5.8291358740035	0.69220888506378
5.8212127766990	0.69229030716492
5.8133111886756	0.69237548973079
5.8054310224632	0.69246442881142
5.7975721910656	0.69255712029245
5.7897346079567	0.69265355989486
5.7819181870781	0.69275374317472
5.7741228428351	0.69285766552284
5.7663484900942	0.69296532216446
5.7585950441798	0.69307670815891
5.7508624208709	0.69319181839926
5.7431505363985	0.69331064761191
5.7354593074421	0.69343319035624
5.7277886511272	0.69355944102418
5.7201384850219	0.69368939383977
5.7125087271341	0.69382304285873
5.7048992959087	0.69396038196801
5.6973101102242	0.69410140488530
5.6897410893908	0.69424610515854
5.6821921531463	0.69439447616540
5.6746632216544	0.69454651111279
5.6671542155009	0.69470220303627
5.6596650556919	0.69486154479955
5.6521956636501	0.69502452909386
5.6447459612126	0.69519114843741
5.6373158706281	0.69536139517475
5.6299053145540	0.69553526147620
5.6225142160540	0.69571273933717
5.6151424985952	0.69589382057754
5.6077900860456	0.69607849684100
5.6004569026714	0.69626675959435
5.5931428731343	0.69645860012685
5.5858479224893	0.69665400954948
5.5785719761816	0.69685297879425
5.5713149600446	0.69705549861347
5.5640768002970	0.69726155957897
5.5568574235403	0.69747115208139
5.5496567567568	0.69768426632940
5.5424747273063	0.69790089234891
5.5353112629247	0.69812101998227
5.5281662917204	0.69834463888749
5.5210397421731	0.69857173853741
5.5139315431304	0.69880230821887
5.5068416238060	0.69903633703189
5.4997699137773	0.69927381388878
5.4927163429828	0.69951472751334
5.4856808417200	0.69975906643994
5.4786633406433	0.70000681901266
5.4716637707611	0.70025797338443
5.4646820634342	0.70051251751606
5.4577181503732	0.70077043917542
5.4507719636364	0.70103172593646
5.4438434356274	0.70129636517832
5.4369324990932	0.70156434408440
5.4300390871219	0.70183564964139
5.4231631331404	0.70211026863837
5.4163045709124	0.70238818766583
5.4094633345363	0.70266939311472
5.4026393584430	0.70295387117549
5.3958325773938	0.70324160783710
5.3890429264785	0.70353258888609
5.3822703411131	0.70382679990556
5.3755147570378	0.70412422627420
5.3687761103152	0.70442485316531
5.3620543373278	0.70472866554580
5.3553493747767	0.70503564817521
5.3486611596789	0.70534578560471
5.3419896293656	0.70565906217608
5.3353347214807	0.70597546202075
5.3286963739780	0.70629496905878
5.3220745251198	0.70661756699786
5.3154691134752	0.70694323933230
5.3088800779175	0.70727196934206
5.3023073576229	0.70760374009172
5.2957508920685	0.70793853442948
5.2892106210303	0.70827633498621
5.2826864845815	0.70861712417441
5.2761784230905	0.70896088418722
5.2696863772192	0.70930759699746
5.2632102879213	0.70965724435666
5.2567500964405	0.71000980779401
5.2503057443082	0.71036526861548
5.2438771733427	0.71072360790278
5.2374643256464	0.71108480651245
5.2310671436050	0.71144884507487
5.2246855698850	0.71181570399333
5.2183195474326	0.71218536344311
5.2119690194715	0.71255780337052
5.2056339295016	0.71293300349200
5.1993142212973	0.71331094329319
5.1930098389052	0.71369160202807
5.1867207266436	0.71407495871804
5.1804468290997	0.71446099215107
5.1741880911288	0.71484968088079
5.1679444578521	0.71524100322572
5.1617158746556	0.71563493726835
5.1555022871883	0.71603146085438
5.1493036413604	0.71643055159190
5.1431198833419	0.71683218685058
5.1369509595613	0.71723634376092
5.1307968167037	0.71764299921350
5.1246574017094	0.71805212985822
5.1185326617722	0.71846371210361
5.1124225443383	0.71887772211611
5.1063269971044	0.71929413581941
5.1002459680163	0.71971292889378
5.0941794052676	0.72013407677545
5.0881272572980	0.72055755465598
5.0820894727920	0.72098333748170
5.0760660006773	0.72141139995311
5.0700567901235	0.72184171652438
5.0640617905405	0.72227426140281
5.0580809515775	0.72270900854834
5.0521142231210	0.72314593167312
5.0461615552937	0.72358500424106
5.0402228984533	0.72402619946742
5.0342982031906	0.72446949031846
5.0283874203287	0.72491484951108
5.0224905009214	0.72536224951250
5.0166073962517	0.72581166254002
5.0107380578305	0.72626306056075
5.0048824373957	0.72671641529138
4.9990404869101	0.72717169819803
4.9932121585610	0.72762888049613
4.9873974047579	0.72808793315025
4.9815961781323	0.72854882687409
4.9758084315353	0.72901153213041
4.9700341180371	0.72947601913109
4.9642731909256	0.72994225783712
4.9585256037049	0.73041021795871
4.9527913100942	0.73087986895545
4.9470702640264	0.73135118003645
4.9413624196473	0.73182412016056
4.9356677313138	0.73229865803662
4.9299861535932	0.73277476212381
4.9243176412615	0.73325240063194
4.9186621493027	0.73373154152187
4.9130196329072	0.73421215250599
4.9073900474709	0.73469420104865
4.9017733485939	0.73517765436674
4.8961694920790	0.73566247943025
4.8905784339315	0.73614864296296
4.8850001303569	0.73663611144308
4.8794345377604	0.73712485110403
4.8738816127459	0.73761482793522
4.8683413121143	0.73810600768289
4.8628135928629	0.73859835585107
4.8572984121841	0.73909183770246
4.8517957274640	0.73958641825951
4.8463054962819	0.74008206230550
4.8408276764088	0.74057873438561
4.8353622258065	0.74107639880818
