#Parameters = {thARC=0; nARC=1; thsub=1; p=1; nSub=3.75}
#"Wavelength / um"	"T (595) [Real Part]"
#---------------------------------------
14.989622900000	0.66482000058246
14.937342202292	0.66484264750126
14.885424925521	0.66486467140792
14.833867293419	0.66488608096364
14.782665581854	0.66490688477226
14.731816117936	0.66492709138002
14.681315279138	0.66494670927540
14.631159492435	0.66496574688888
14.581345233463	0.66498421259280
14.531869025691	0.66500211470111
14.482727439614	0.66501946146928
14.433917091960	0.66503626109407
14.385434644914	0.66505252171342
14.337276805356	0.66506825140629
14.289440324118	0.66508345819249
14.241921995249	0.66509815003261
14.194718655303	0.66511233482784
14.147827182633	0.66512602041989
14.101244496707	0.66513921459088
14.054967557431	0.66515192506319
14.008993364486	0.66516415949946
13.963318956684	0.66517592550241
13.917941411328	0.66518723061485
13.872857843591	0.66519808231951
13.828065405904	0.66520848803909
13.783561287356	0.66521845513611
13.739342713107	0.66522799091290
13.695406943810	0.66523710261159
13.651751275046	0.66524579741401
13.608373036768	0.66525408244171
13.565269592760	0.66526196475592
13.522438340099	0.66526945135756
13.479876708633	0.66527654918718
13.437582160466	0.66528326512504
13.395552189455	0.66528960599105
13.353784320713	0.66529557854479
13.312276110124	0.66530118948557
13.271025143869	0.66530644545242
13.230029037952	0.66531135302413
13.189285437747	0.66531591871930
13.148792017544	0.66532014899637
13.108546480105	0.66532405025367
13.068546556234	0.66532762882950
13.028790004346	0.66533089100216
12.989274610052	0.66533384299004
12.949998185745	0.66533649095170
12.910958570198	0.66533884098591
12.872153628167	0.66534089913181
12.833581250000	0.66534267136891
12.795239351259	0.66534416361727
12.757125872340	0.66534538173755
12.719238778108	0.66534633153114
12.681576057530	0.66534701874025
12.644135723323	0.66534744904808
12.606915811606	0.66534762807888
12.569914381551	0.66534756139811
12.533129515050	0.66534725451260
12.496559316382	0.66534671287064
12.460201911887	0.66534594186214
12.424055449648	0.66534494681880
12.388118099174	0.66534373301423
12.352388051092	0.66534230566415
12.316863516845	0.66534066992650
12.281542728390	0.66533883090166
12.246423937908	0.66533679363257
12.211505417515	0.66533456310495
12.176785458976	0.66533214424747
12.142262373431	0.66532954193192
12.107934491115	0.66532676097339
12.073800161095	0.66532380613052
12.039857751004	0.66532068210562
12.006105646776	0.66531739354493
11.972542252396	0.66531394503880
11.939165989646	0.66531034112191
11.905975297855	0.66530658627345
11.872968633663	0.66530268491739
11.840144470774	0.66529864142266
11.807501299724	0.66529446010341
11.775037627651	0.66529014521918
11.742751978065	0.66528570097520
11.710642890625	0.66528113152255
11.678708920919	0.66527644095849
11.646948640249	0.66527163332661
11.615360635413	0.66526671261712
11.583943508501	0.66526168276711
11.552695876686	0.66525654766076
11.521616372022	0.66525131112963
11.490703641242	0.66524597695290
11.459956345566	0.66524054885763
11.429373160503	0.66523503051904
11.398952775665	0.66522942556072
11.368693894577	0.66522373755498
11.338595234493	0.66521797002307
11.308655526217	0.66521212643545
11.278873513920	0.66520621021208
11.249247954972	0.66520022472270
11.219777619760	0.66519417328712
11.190461291527	0.66518805917549
11.161297766195	0.66518188560856
11.132285852209	0.66517565575801
11.103424370370	0.66516937274675
11.074712153676	0.66516303964916
11.046148047163	0.66515665949140
11.017730907755	0.66515023525176
10.989459604106	0.66514376986088
10.961333016453	0.66513726620210
10.933350036470	0.66513072711176
10.905509567115	0.66512415537947
10.877810522496	0.66511755374847
10.850251827723	0.66511092491589
10.822832418773	0.66510427153307
10.795551242348	0.66509759620590
10.768407255747	0.66509090149508
10.741399426729	0.66508418991650
10.714526733381	0.66507746394150
10.687788163993	0.66507072599721
10.661182716927	0.66506397846686
10.634709400497	0.66505722369012
10.608367232838	0.66505046396340
10.582155241793	0.66504370154016
10.556072464789	0.66503693863130
10.530117948718	0.66503017740538
10.504290749825	0.66502341998903
10.478589933590	0.66501666846726
10.453014574616	0.66500992488376
10.427563756522	0.66500319124124
10.402236571825	0.66499646950178
10.377032121841	0.66498976158713
10.351949516575	0.66498306937907
10.326987874612	0.66497639471971
10.302146323024	0.66496973941186
10.277423997257	0.66496310521933
10.252820041040	0.66495649386728
10.228333606278	0.66494990704255
10.203963852961	0.66494334639400
10.179709949066	0.66493681353284
10.155571070461	0.66493031003297
10.131546400811	0.66492383743132
10.107635131490	0.66491739722815
10.083836461487	0.66491099088747
10.060149597315	0.66490461983727
10.036573752929	0.66489828546996
10.013108149633	0.66489198914262
9.9897520159947	0.66488573217742
9.9665045877660	0.66487951586188
9.9433651077944	0.66487334144926
9.9203328259431	0.66486721015889
9.8974069990096	0.66486112317648
9.8745868906456	0.66485508165451
9.8518717712783	0.66484908671250
9.8292609180328	0.66484313943743
9.8067536146549	0.66483724088399
9.7843491514360	0.66483139207500
9.7620468251384	0.66482559400167
9.7398459389214	0.66481984762401
9.7177458022690	0.66481415387111
9.6957457309185	0.66480851364152
9.6738450467893	0.66480292780356
9.6520430779137	0.66479739719565
9.6303391583681	0.66479192262667
9.6087326282051	0.66478650487628
9.5872228333866	0.66478114469527
9.5658091257179	0.66477584280587
9.5444908627826	0.66477059990209
9.5232674078780	0.66476541665008
9.5021381299525	0.66476029368843
9.4811024035421	0.66475523162851
9.4601596087094	0.66475023105481
9.4393091309824	0.66474529252528
9.4185503612944	0.66474041657163
9.3978826959248	0.66473560369966
9.3773055364404	0.66473085438965
9.3568182896380	0.66472616909660
9.3364203674868	0.66472154825060
9.3161111870727	0.66471699225718
9.2958901705426	0.66471250149760
9.2757567450495	0.66470807632916
9.2557103426984	0.66470371708558
9.2357504004929	0.66469942407725
9.2158763602828	0.66469519759164
9.1960876687117	0.66469103789352
9.1763837771656	0.66468694522535
9.1567641417227	0.66468291980759
9.1372282231027	0.66467896183899
9.1177754866180	0.66467507149692
9.0984054021244	0.66467124893769
9.0791174439733	0.66466749429684
9.0599110909640	0.66466380768951
9.0407858262967	0.66466018921068
9.0217411375263	0.66465663893551
9.0027765165165	0.66465315691968
8.9838914593947	0.66464974319964
8.9650854665072	0.66464639779296
8.9463580423754	0.66464312069862
8.9277086956522	0.66463991189730
8.9091369390788	0.66463677135170
8.8906422894425	0.66463369900685
8.8722242675348	0.66463069479039
8.8538823981099	0.66462775861285
8.8356162098438	0.66462489036800
8.8174252352941	0.66462208993311
8.7993090108600	0.66461935716923
8.7812670767428	0.66461669192152
8.7632989769073	0.66461409401951
8.7454042590432	0.66461156327741
8.7275824745269	0.66460909949439
8.7098331783847	0.66460670245485
8.6921559292549	0.66460437192873
8.6745502893519	0.66460210767177
8.6570158244297	0.66459990942581
8.6395521037464	0.66459777691908
8.6221587000288	0.66459570986642
8.6048351894374	0.66459370796962
8.5875811515325	0.66459177091768
8.5703961692396	0.66458989838706
8.5532798288160	0.66458809004196
8.5362317198178	0.66458634553460
8.5192514350668	0.66458466450549
8.5023385706183	0.66458304658368
8.4854927257288	0.66458149138703
8.4687135028249	0.66457999852247
8.4520005074711	0.66457856758628
8.4353533483399	0.66457719816433
8.4187716371806	0.66457588983232
8.4022549887892	0.66457464215609
8.3858030209790	0.66457345469181
8.3694153545505	0.66457232698628
8.3530916132627	0.66457125857715
8.3368314238042	0.66457024899318
8.3206344157646	0.66456929775449
8.3045002216066	0.66456840437279
8.2884284766381	0.66456756835164
8.2724188189845	0.66456678918667
8.2564708895621	0.66456606636583
8.2405843320506	0.66456539936963
8.2247587928669	0.66456478767137
8.2089939211391	0.66456423073737
8.1932893686800	0.66456372802721
8.1776447899618	0.66456327899392
8.1620598420909	0.66456288308427
8.1465341847826	0.66456253973896
8.1310674803363	0.66456224839282
8.1156593936113	0.66456200847509
8.1003095920022	0.66456181940956
8.0850177454153	0.66456168061487
8.0697835262450	0.66456159150467
8.0546066093498	0.66456155148783
8.0394866720300	0.66456155996869
8.0244233940043	0.66456161634724
8.0094164573871	0.66456172001933
7.9944655466667	0.66456187037687
7.9795703486825	0.66456206680805
7.9647305526036	0.66456230869753
7.9499458499072	0.66456259542663
7.9352159343568	0.66456292637352
7.9205405019815	0.66456330091346
7.9059192510549	0.66456371841893
7.8913518820742	0.66456417825986
7.8768380977404	0.66456467980380
7.8623776029373	0.66456522241614
7.8479701047120	0.66456580546022
7.8336153122550	0.66456642829760
7.8193129368805	0.66456709028818
7.8050626920073	0.66456779079037
7.7908642931393	0.66456852916134
7.7767174578470	0.66456930475710
7.7626219057483	0.66457011693273
7.7485773584906	0.66457096504253
7.7345835397317	0.66457184844019
7.7206401751223	0.66457276647896
7.7067469922879	0.66457371851180
7.6929037208109	0.66457470389154
7.6791100922131	0.66457572197106
7.6653658399386	0.66457677210343
7.6516706993364	0.66457785364204
7.6380244076433	0.66457896594082
7.6244267039674	0.66458010835431
7.6108773292714	0.66458128023788
7.5973760263558	0.66458248094780
7.5839225398432	0.66458370984147
7.5705166161616	0.66458496627749
7.5571580035291	0.66458624961582
7.5438464519376	0.66458755921794
7.5305817131374	0.66458889444697
7.5173635406219	0.66459025466780
7.5041916896120	0.66459163924720
7.4910659170415	0.66459304755400
7.4779859815415	0.66459447895918
7.4649516434263	0.66459593283600
7.4519626646781	0.66459740856013
7.4390188089330	0.66459890550977
7.4261198414664	0.66460042306576
7.4132655291790	0.66460196061170
7.4004556405826	0.66460351753409
7.3876899457861	0.66460509322237
7.3749682164822	0.66460668706914
7.3622902259332	0.66460829847016
7.3496557489581	0.66460992682452
7.3370645619187	0.66461157153474
7.3245164427071	0.66461323200686
7.3120111707317	0.66461490765052
7.2995485269053	0.66461659787909
7.2871282936315	0.66461830210976
7.2747502547925	0.66462001976363
7.2624141957364	0.66462175026579
7.2501199032648	0.66462349304544
7.2378671656205	0.66462524753594
7.2256557724753	0.66462701317493
7.2134855149182	0.66462878940440
7.2013561854432	0.66463057567075
7.1892675779376	0.66463237142493
7.1772194876706	0.66463417612246
7.1652117112811	0.66463598922353
7.1532440467669	0.66463781019306
7.1413162934731	0.66463963850080
7.1294282520809	0.66464147362140
7.1175797245964	0.66464331503442
7.1057705143399	0.66464516222447
7.0940004259347	0.66464701468126
7.0822692652965	0.66464887189961
7.0705768396226	0.66465073337957
7.0589229573817	0.66465259862647
7.0473074283028	0.66465446715095
7.0357300633654	0.66465633846903
7.0241906747891	0.66465821210218
7.0126890760234	0.66466008757734
7.0012250817375	0.66466196442701
6.9897985078107	0.66466384218925
6.9784091713222	0.66466572040777
6.9670568905415	0.66466759863196
6.9557414849188	0.66466947641690
6.9444627750753	0.66467135332347
6.9332205827937	0.66467322891833
6.9220147310090	0.66467510277398
6.9108450437990	0.66467697446879
6.8997113463751	0.66467884358705
6.8886134650735	0.66468070971898
6.8775512273457	0.66468257246078
6.8665244617499	0.66468443141463
6.8555329979419	0.66468628618877
6.8445766666667	0.66468813639747
6.8336552997493	0.66468998166108
6.8227687300865	0.66469182160605
6.8119167916383	0.66469365586497
6.8010993194192	0.66469548407655
6.7903161494904	0.66469730588565
6.7795671189507	0.66469912094334
6.7688520659291	0.66470092890683
6.7581708295762	0.66470272943957
6.7475232500563	0.66470452221121
6.7369091685393	0.66470630689761
6.7263284271932	0.66470808318088
6.7157808691756	0.66470985074935
6.7052663386267	0.66471160929761
6.6947846806610	0.66471335852649
6.6843357413601	0.66471509814305
6.6739193677649	0.66471682786063
6.6635354078684	0.66471854739879
6.6531837106081	0.66472025648337
6.6428641258586	0.66472195484642
6.6325765044248	0.66472364222624
6.6223206980340	0.66472531836738
6.6120965593295	0.66472698302059
6.6019039418630	0.66472863594285
6.5917427000879	0.66473027689735
6.5816126893524	0.66473190565345
6.5715137658922	0.66473352198672
6.5614457868243	0.66473512567888
6.5514086101399	0.66473671651780
6.5414020946978	0.66473829429750
6.5314261002179	0.66473985881811
6.5214804872743	0.66474140988584
6.5115651172893	0.66474294731300
6.5016798525266	0.66474447091795
6.4918245560849	0.66474598052508
6.4819990918919	0.66474747596478
6.4722033246978	0.66474895707344
6.4624371200690	0.66475042369338
6.4527003443823	0.66475187567289
6.4429928648184	0.66475331286613
6.4333145493562	0.66475473513313
6.4236652667667	0.66475614233977
6.4140448866068	0.66475753435775
6.4044532792138	0.66475891106453
6.3948903156997	0.66476027234330
6.3853558679446	0.66476161808298
6.3758498085921	0.66476294817816
6.3663720110427	0.66476426252904
6.3569223494487	0.66476556104145
6.3475006987084	0.66476684362674
6.3381069344609	0.66476811020180
6.3287409330800	0.66476936068899
6.3194025716695	0.66477059501612
6.3100917280572	0.66477181311636
6.3008082807902	0.66477301492826
6.2915521091291	0.66477420039566
6.2823230930427	0.66477536946765
6.2731211132036	0.66477652209855
6.2639460509820	0.66477765824785
6.2547977884415	0.66477877788014
6.2456762083333	0.66477988096510
6.2365811940919	0.66478096747741
6.2275126298297	0.66478203739674
6.2184704003319	0.66478309070768
6.2094543910522	0.66478412739969
6.2004644881075	0.66478514746703
6.1915005782734	0.66478615090874
6.1825625489792	0.66478713772859
6.1736502883031	0.66478810793497
6.1647636849681	0.66478906154091
6.1559026283368	0.66478999856395
6.1470670084068	0.66479091902617
6.1382567158067	0.66479182295404
6.1294716417910	0.66479271037843
6.1207116782360	0.66479358133455
6.1119767176351	0.66479443586184
6.1032666530945	0.66479527400396
6.0945813783289	0.66479609580872
6.0859207876573	0.66479690132802
6.0772847759984	0.66479769061777
6.0686732388664	0.66479846373785
6.0600860723671	0.66479922075206
6.0515231731934	0.66479996172804
6.0429844386212	0.66480068673720
6.0344697665056	0.66480139585467
6.0259790552764	0.66480208915925
6.0175122039342	0.66480276673334
6.0090691120465	0.66480342866284
6.0006496797438	0.66480407503716
5.9922538077154	0.66480470594908
5.9838813972056	0.66480532149474
5.9755323500100	0.66480592177355
5.9672065684713	0.66480650688813
5.9589039554760	0.66480707694424
5.9506244144502	0.66480763205073
5.9423678493558	0.66480817231948
5.9341341646873	0.66480869786528
5.9259232654675	0.66480920880585
5.9177350572444	0.66480970526170
5.9095694460871	0.66481018735610
5.9014263385827	0.66481065521501
5.8933056418321	0.66481110896700
5.8852072634472	0.66481154874322
5.8771311115468	0.66481197467727
5.8690770947533	0.66481238690521
5.8610451221896	0.66481278556542
5.8530351034752	0.66481317079859
5.8450469487229	0.66481354274761
5.8370805685358	0.66481390155756
5.8291358740035	0.66481424737557
5.8212127766990	0.66481458035081
5.8133111886756	0.66481490063440
5.8054310224632	0.66481520837935
5.7975721910656	0.66481550374048
5.7897346079567	0.66481578687439
5.7819181870781	0.66481605793933
5.7741228428351	0.66481631709521
5.7663484900942	0.66481656450347
5.7585950441798	0.66481680032705
5.7508624208709	0.66481702473031
5.7431505363985	0.66481723787897
5.7354593074421	0.66481743994004
5.7277886511272	0.66481763108175
5.7201384850219	0.66481781147351
5.7125087271341	0.66481798128580
5.7048992959087	0.66481814069015
5.6973101102242	0.66481828985906
5.6897410893908	0.66481842896592
5.6821921531463	0.66481855818495
5.6746632216544	0.66481867769117
5.6671542155009	0.66481878766029
5.6596650556919	0.66481888826868
5.6521956636501	0.66481897969329
5.6447459612126	0.66481906211158
5.6373158706281	0.66481913570150
5.6299053145540	0.66481920064135
5.6225142160540	0.66481925710982
5.6151424985952	0.66481930528584
5.6077900860456	0.66481934534856
5.6004569026714	0.66481937747729
5.5931428731343	0.66481940185143
5.5858479224893	0.66481941865041
5.5785719761816	0.66481942805364
5.5713149600446	0.66481943024044
5.5640768002970	0.66481942539001
5.5568574235403	0.66481941368131
5.5496567567568	0.66481939529307
5.5424747273063	0.66481937040370
5.5353112629247	0.66481933919124
5.5281662917204	0.66481930183330
5.5210397421731	0.66481925850701
5.5139315431304	0.66481920938895
5.5068416238060	0.66481915465513
5.4997699137773	0.66481909448090
5.4927163429828	0.66481902904092
5.4856808417200	0.66481895850908
5.4786633406433	0.66481888305850
5.4716637707611	0.66481880286140
5.4646820634342	0.66481871808914
5.4577181503732	0.66481862891210
5.4507719636364	0.66481853549964
5.4438434356274	0.66481843802009
5.4369324990932	0.66481833664067
5.4300390871219	0.66481823152743
5.4231631331404	0.66481812284526
5.4163045709124	0.66481801075776
5.4094633345363	0.66481789542726
5.4026393584430	0.66481777701476
5.3958325773938	0.66481765567986
5.3890429264785	0.66481753158074
5.3822703411131	0.66481740487413
5.3755147570378	0.66481727571523
5.3687761103152	0.66481714425769
5.3620543373278	0.66481701065356
5.3553493747767	0.66481687505326
5.3486611596789	0.66481673760555
5.3419896293656	0.66481659845745
5.3353347214807	0.66481645775426
5.3286963739780	0.66481631563945
5.3220745251198	0.66481617225471
5.3154691134752	0.66481602773983
5.3088800779175	0.66481588223272
5.3023073576229	0.66481573586936
5.2957508920685	0.66481558878375
5.2892106210303	0.66481544110792
5.2826864845815	0.66481529297185
5.2761784230905	0.66481514450344
5.2696863772192	0.66481499582854
5.2632102879213	0.66481484707084
5.2567500964405	0.66481469835191
5.2503057443082	0.66481454979110
5.2438771733427	0.66481440150560
5.2374643256464	0.66481425361033
5.2310671436050	0.66481410621798
5.2246855698850	0.66481395943892
5.2183195474326	0.66481381338124
5.2119690194715	0.66481366815070
5.2056339295016	0.66481352385069
5.1993142212973	0.66481338058222
5.1930098389052	0.66481323844392
5.1867207266436	0.66481309753200
5.1804468290997	0.66481295794023
5.1741880911288	0.66481281975992
5.1679444578521	0.66481268307993
5.1617158746556	0.66481254798660
5.1555022871883	0.66481241456379
5.1493036413604	0.66481228289283
5.1431198833419	0.66481215305253
5.1369509595613	0.66481202511914
5.1307968167037	0.66481189916634
5.1246574017094	0.66481177526528
5.1185326617722	0.66481165348449
5.1124225443383	0.66481153388993
5.1063269971044	0.66481141654495
5.1002459680163	0.66481130151030
5.0941794052676	0.66481118884411
5.0881272572980	0.66481107860188
5.0820894727920	0.66481097083650
5.0760660006773	0.66481086559823
5.0700567901235	0.66481076293467
5.0640617905405	0.66481066289080
5.0580809515775	0.66481056550896
5.0521142231210	0.66481047082885
5.0461615552937	0.66481037888750
5.0402228984533	0.66481028971934
5.0342982031906	0.66481020335613
5.0283874203287	0.66481011982699
5.0224905009214	0.66481003915843
5.0166073962517	0.66480996137431
5.0107380578305	0.66480988649585
5.0048824373957	0.66480981454167
4.9990404869101	0.66480974552777
4.9932121585610	0.66480967946753
4.9873974047579	0.66480961637175
4.9815961781323	0.66480955624861
4.9758084315353	0.66480949910374
4.9700341180371	0.66480944494016
4.9642731909256	0.66480939375837
4.9585256037049	0.66480934555630
4.9527913100942	0.66480930032934
4.9470702640264	0.66480925807036
4.9413624196473	0.66480921876975
4.9356677313138	0.66480918241536
4.9299861535932	0.66480914899259
4.9243176412615	0.66480911848440
4.9186621493027	0.66480909087127
4.9130196329072	0.66480906613128
4.9073900474709	0.66480904424010
4.9017733485939	0.66480902517102
4.8961694920790	0.66480900889495
4.8905784339315	0.66480899538048
4.8850001303569	0.66480898459386
4.8794345377604	0.66480897649907
4.8738816127459	0.66480897105779
4.8683413121143	0.66480896822946
4.8628135928629	0.66480896797130
4.8572984121841	0.66480897023833
4.8517957274640	0.66480897498340
4.8463054962819	0.66480898215720
4.8408276764088	0.66480899170834
4.8353622258065	0.66480900358331
