#Parameters = {thARC=0.2; nARC=1; thsub=1; p=1; nSub=3.75}
#"Wavelength / um"	"T (596) [Real Part]"
#---------------------------------------
14.989622900000	0.66482013078468
14.937342202292	0.66484736353203
14.885424925521	0.66487381336321
14.833867293419	0.66489949158975
14.782665581854	0.66492440944799
14.731816117936	0.66494857809873
14.681315279138	0.66497200862682
14.631159492435	0.66499471204085
14.581345233463	0.66501669927280
14.531869025691	0.66503798117771
14.482727439614	0.66505856853335
14.433917091960	0.66507847203996
14.385434644914	0.66509770231993
14.337276805356	0.66511626991753
14.289440324118	0.66513418529868
14.241921995249	0.66515145885065
14.194718655303	0.66516810088185
14.147827182633	0.66518412162163
14.101244496707	0.66519953122001
14.054967557431	0.66521433974754
14.008993364486	0.66522855719505
13.963318956684	0.66524219347355
13.917941411328	0.66525525841398
13.872857843591	0.66526776176712
13.828065405904	0.66527971320344
13.783561287356	0.66529112231293
13.739342713107	0.66530199860503
13.695406943810	0.66531235150850
13.651751275046	0.66532219037132
13.608373036768	0.66533152446061
13.565269592760	0.66534036296255
13.522438340099	0.66534871498233
13.479876708633	0.66535658954409
13.437582160466	0.66536399559087
13.395552189455	0.66537094198459
13.353784320713	0.66537743750602
13.312276110124	0.66538349085477
13.271025143869	0.66538911064928
13.230029037952	0.66539430542685
13.189285437747	0.66539908364365
13.148792017544	0.66540345367473
13.108546480105	0.66540742381407
13.068546556234	0.66541100227465
13.028790004346	0.66541419718846
12.989274610052	0.66541701660661
12.949998185745	0.66541946849938
12.910958570198	0.66542156075630
12.872153628167	0.66542330118626
12.833581250000	0.66542469751763
12.795239351259	0.66542575739831
12.757125872340	0.66542648839590
12.719238778108	0.66542689799782
12.681576057530	0.66542699361143
12.644135723323	0.66542678256418
12.606915811606	0.66542627210378
12.569914381551	0.66542546939834
12.533129515050	0.66542438153653
12.496559316382	0.66542301552779
12.460201911887	0.66542137830250
12.424055449648	0.66541947671215
12.388118099174	0.66541731752955
12.352388051092	0.66541490744908
12.316863516845	0.66541225308682
12.281542728390	0.66540936098084
12.246423937908	0.66540623759141
12.211505417515	0.66540288930121
12.176785458976	0.66539932241561
12.142262373431	0.66539554316289
12.107934491115	0.66539155769449
12.073800161095	0.66538737208531
12.039857751004	0.66538299233394
12.006105646776	0.66537842436295
11.972542252396	0.66537367401916
11.939165989646	0.66536874707393
11.905975297855	0.66536364922348
11.872968633663	0.66535838608914
11.840144470774	0.66535296321767
11.807501299724	0.66534738608161
11.775037627651	0.66534166007952
11.742751978065	0.66533579053638
11.710642890625	0.66532978270384
11.678708920919	0.66532364176063
11.646948640249	0.66531737281280
11.615360635413	0.66531098089417
11.583943508501	0.66530447096659
11.552695876686	0.66529784792033
11.521616372022	0.66529111657442
11.490703641242	0.66528428167703
11.459956345566	0.66527734790581
11.429373160503	0.66527031986828
11.398952775665	0.66526320210220
11.368693894577	0.66525599907593
11.338595234493	0.66524871518882
11.308655526217	0.66524135477162
11.278873513920	0.66523392208685
11.249247954972	0.66522642132916
11.219777619760	0.66521885662580
11.190461291527	0.66521123203697
11.161297766195	0.66520355155623
11.132285852209	0.66519581911093
11.103424370370	0.66518803856260
11.074712153676	0.66518021370736
11.046148047163	0.66517234827637
11.017730907755	0.66516444593624
10.989459604106	0.66515651028941
10.961333016453	0.66514854487466
10.933350036470	0.66514055316746
10.905509567115	0.66513253858045
10.877810522496	0.66512450446387
10.850251827723	0.66511645410598
10.822832418773	0.66510839073353
10.795551242348	0.66510031751218
10.768407255747	0.66509223754695
10.741399426729	0.66508415388266
10.714526733381	0.66507606950442
10.687788163993	0.66506798733804
10.661182716927	0.66505991025049
10.634709400497	0.66505184105038
10.608367232838	0.66504378248840
10.582155241793	0.66503573725778
10.556072464789	0.66502770799478
10.530117948718	0.66501969727910
10.504290749825	0.66501170763440
10.478589933590	0.66500374152874
10.453014574616	0.66499580137504
10.427563756522	0.66498788953158
10.402236571825	0.66498000830245
10.377032121841	0.66497215993802
10.351949516575	0.66496434663543
10.326987874612	0.66495657053904
10.302146323024	0.66494883374095
10.277423997257	0.66494113828142
10.252820041040	0.66493348614940
10.228333606278	0.66492587928296
10.203963852961	0.66491831956982
10.179709949066	0.66491080884779
10.155571070461	0.66490334890526
10.131546400811	0.66489594148171
10.107635131490	0.66488858826815
10.083836461487	0.66488129090763
10.060149597315	0.66487405099571
10.036573752929	0.66486687008094
10.013108149633	0.66485974966538
9.9897520159947	0.66485269120502
9.9665045877660	0.66484569611032
9.9433651077944	0.66483876574667
9.9203328259431	0.66483190143486
9.8974069990096	0.66482510445160
9.8745868906456	0.66481837602998
9.8518717712783	0.66481171735995
9.8292609180328	0.66480512958882
9.8067536146549	0.66479861382173
9.7843491514360	0.66479217112213
9.7620468251384	0.66478580251228
9.7398459389214	0.66477950897373
9.7177458022690	0.66477329144777
9.6957457309185	0.66476715083597
9.6738450467893	0.66476108800059
9.6520430779137	0.66475510376511
9.6303391583681	0.66474919891471
9.6087326282051	0.66474337419672
9.5872228333866	0.66473763032110
9.5658091257179	0.66473196796095
9.5444908627826	0.66472638775297
9.5232674078780	0.66472089029790
9.5021381299525	0.66471547616105
9.4811024035421	0.66471014587275
9.4601596087094	0.66470489992880
9.4393091309824	0.66469973879099
9.4185503612944	0.66469466288752
9.3978826959248	0.66468967261350
9.3773055364404	0.66468476833140
9.3568182896380	0.66467995037154
9.3364203674868	0.66467521903253
9.3161111870727	0.66467057458174
9.2958901705426	0.66466601725579
9.2757567450495	0.66466154726095
9.2557103426984	0.66465716477367
9.2357504004929	0.66465286994098
9.2158763602828	0.66464866288099
9.1960876687117	0.66464454368332
9.1763837771656	0.66464051240955
9.1567641417227	0.66463656909370
9.1372282231027	0.66463271374263
9.1177754866180	0.66462894633655
9.0984054021244	0.66462526682941
9.0791174439733	0.66462167514939
9.0599110909640	0.66461817119930
9.0407858262967	0.66461475485706
9.0217411375263	0.66461142597611
9.0027765165165	0.66460818438587
8.9838914593947	0.66460502989215
8.9650854665072	0.66460196227759
8.9463580423754	0.66459898130213
8.9277086956522	0.66459608670336
8.9091369390788	0.66459327819702
8.8906422894425	0.66459055547740
8.8722242675348	0.66458791821773
8.8538823981099	0.66458536607066
8.8356162098438	0.66458289866863
8.8174252352941	0.66458051562429
8.7993090108600	0.66457821653096
8.7812670767428	0.66457600096298
8.7632989769073	0.66457386847615
8.7454042590432	0.66457181860812
8.7275824745269	0.66456985087883
8.7098331783847	0.66456796479086
8.6921559292549	0.66456615982988
8.6745502893519	0.66456443546501
8.6570158244297	0.66456279114921
8.6395521037464	0.66456122631971
8.6221587000288	0.66455974039838
8.6048351894374	0.66455833279208
8.5875811515325	0.66455700289311
8.5703961692396	0.66455575007955
8.5532798288160	0.66455457371563
8.5362317198178	0.66455347315213
8.5192514350668	0.66455244772676
8.5023385706183	0.66455149676450
8.4854927257288	0.66455061957798
8.4687135028249	0.66454981546786
8.4520005074711	0.66454908372318
8.4353533483399	0.66454842362170
8.4187716371806	0.66454783443031
8.4022549887892	0.66454731540532
8.3858030209790	0.66454686579286
8.3694153545505	0.66454648482921
8.3530916132627	0.66454617174114
8.3368314238042	0.66454592574624
8.3206344157646	0.66454574605331
8.3045002216066	0.66454563186265
8.2884284766381	0.66454558236640
8.2724188189845	0.66454559674888
8.2564708895621	0.66454567418693
8.2405843320506	0.66454581385021
8.2247587928669	0.66454601490153
8.2089939211391	0.66454627649718
8.1932893686800	0.66454659778722
8.1776447899618	0.66454697791585
8.1620598420909	0.66454741602163
8.1465341847826	0.66454791123787
8.1310674803363	0.66454846269289
8.1156593936113	0.66454906951033
8.1003095920022	0.66454973080946
8.0850177454153	0.66455044570544
8.0697835262450	0.66455121330966
8.0546066093498	0.66455203272998
8.0394866720300	0.66455290307106
8.0244233940043	0.66455382343461
8.0094164573871	0.66455479291966
7.9944655466667	0.66455581062289
7.9795703486825	0.66455687563885
7.9647305526036	0.66455798706023
7.9499458499072	0.66455914397816
7.9352159343568	0.66456034548247
7.9205405019815	0.66456159066191
7.9059192510549	0.66456287860444
7.8913518820742	0.66456420839748
7.8768380977404	0.66456557912816
7.8623776029373	0.66456698988355
7.8479701047120	0.66456843975094
7.8336153122550	0.66456992781804
7.8193129368805	0.66457145317324
7.8050626920073	0.66457301490585
7.7908642931393	0.66457461210630
7.7767174578470	0.66457624386643
7.7626219057483	0.66457790927962
7.7485773584906	0.66457960744112
7.7345835397317	0.66458133744818
7.7206401751223	0.66458309840032
7.7067469922879	0.66458488939951
7.6929037208109	0.66458670955039
7.6791100922131	0.66458855796049
7.6653658399386	0.66459043374041
7.6516706993364	0.66459233600402
7.6380244076433	0.66459426386868
7.6244267039674	0.66459621645541
7.6108773292714	0.66459819288908
7.5973760263558	0.66460019229861
7.5839225398432	0.66460221381715
7.5705166161616	0.66460425658225
7.5571580035291	0.66460631973603
7.5438464519376	0.66460840242540
7.5305817131374	0.66461050380217
7.5173635406219	0.66461262302324
7.5041916896120	0.66461475925079
7.4910659170415	0.66461691165241
7.4779859815415	0.66461907940126
7.4649516434263	0.66462126167625
7.4519626646781	0.66462345766214
7.4390188089330	0.66462566654976
7.4261198414664	0.66462788753609
7.4132655291790	0.66463011982444
7.4004556405826	0.66463236262458
7.3876899457861	0.66463461515287
7.3749682164822	0.66463687663240
7.3622902259332	0.66463914629311
7.3496557489581	0.66464142337193
7.3370645619187	0.66464370711289
7.3245164427071	0.66464599676726
7.3120111707317	0.66464829159364
7.2995485269053	0.66465059085810
7.2871282936315	0.66465289383428
7.2747502547925	0.66465519980349
7.2624141957364	0.66465750805483
7.2501199032648	0.66465981788529
7.2378671656205	0.66466212859984
7.2256557724753	0.66466443951155
7.2134855149182	0.66466674994165
7.2013561854432	0.66466905921963
7.1892675779376	0.66467136668336
7.1772194876706	0.66467367167913
7.1652117112811	0.66467597356175
7.1532440467669	0.66467827169464
7.1413162934731	0.66468056544989
7.1294282520809	0.66468285420835
7.1175797245964	0.66468513735967
7.1057705143399	0.66468741430241
7.0940004259347	0.66468968444407
7.0822692652965	0.66469194720115
7.0705768396226	0.66469420199926
7.0589229573817	0.66469644827309
7.0473074283028	0.66469868546656
7.0357300633654	0.66470091303279
7.0241906747891	0.66470313043420
7.0126890760234	0.66470533714253
7.0012250817375	0.66470753263890
6.9897985078107	0.66470971641381
6.9784091713222	0.66471188796725
6.9670568905415	0.66471404680866
6.9557414849188	0.66471619245701
6.9444627750753	0.66471832444081
6.9332205827937	0.66472044229813
6.9220147310090	0.66472254557665
6.9108450437990	0.66472463383367
6.8997113463751	0.66472670663611
6.8886134650735	0.66472876356055
6.8775512273457	0.66473080419324
6.8665244617499	0.66473282813012
6.8555329979419	0.66473483497680
6.8445766666667	0.66473682434860
6.8336552997493	0.66473879587053
6.8227687300865	0.66474074917731
6.8119167916383	0.66474268391337
6.8010993194192	0.66474459973283
6.7903161494904	0.66474649629950
6.7795671189507	0.66474837328690
6.7688520659291	0.66475023037821
6.7581708295762	0.66475206726629
6.7475232500563	0.66475388365365
6.7369091685393	0.66475567925244
6.7263284271932	0.66475745378443
6.7157808691756	0.66475920698098
6.7052663386267	0.66476093858306
6.6947846806610	0.66476264834115
6.6843357413601	0.66476433601528
6.6739193677649	0.66476600137498
6.6635354078684	0.66476764419923
6.6531837106081	0.66476926427647
6.6428641258586	0.66477086140452
6.6325765044248	0.66477243539056
6.6223206980340	0.66477398605110
6.6120965593295	0.66477551321195
6.6019039418630	0.66477701670813
6.5917427000879	0.66477849638388
6.5816126893524	0.66477995209257
6.5715137658922	0.66478138369669
6.5614457868243	0.66478279106777
6.5514086101399	0.66478417408636
6.5414020946978	0.66478553264193
6.5314261002179	0.66478686663285
6.5214804872743	0.66478817596633
6.5115651172893	0.66478946055837
6.5016798525266	0.66479072033366
6.4918245560849	0.66479195522555
6.4819990918919	0.66479316517600
6.4722033246978	0.66479435013547
6.4624371200690	0.66479551006290
6.4527003443823	0.66479664492561
6.4429928648184	0.66479775469925
6.4333145493562	0.66479883936771
6.4236652667667	0.66479989892307
6.4140448866068	0.66480093336550
6.4044532792138	0.66480194270321
6.3948903156997	0.66480292695237
6.3853558679446	0.66480388613700
6.3758498085921	0.66480482028894
6.3663720110427	0.66480572944774
6.3569223494487	0.66480661366055
6.3475006987084	0.66480747298212
6.3381069344609	0.66480830747464
6.3287409330800	0.66480911720767
6.3194025716695	0.66480990225808
6.3100917280572	0.66481066270994
6.3008082807902	0.66481139865443
6.2915521091291	0.66481211018977
6.2823230930427	0.66481279742111
6.2731211132036	0.66481346046043
6.2639460509820	0.66481409942647
6.2547977884415	0.66481471444464
6.2456762083333	0.66481530564689
6.2365811940919	0.66481587317164
6.2275126298297	0.66481641716370
6.2184704003319	0.66481693777411
6.2094543910522	0.66481743516013
6.2004644881075	0.66481790948506
6.1915005782734	0.66481836091818
6.1825625489792	0.66481878963466
6.1736502883031	0.66481919581541
6.1647636849681	0.66481957964703
6.1559026283368	0.66481994132169
6.1470670084068	0.66482028103701
6.1382567158067	0.66482059899597
6.1294716417910	0.66482089540681
6.1207116782360	0.66482117048291
6.1119767176351	0.66482142444269
6.1032666530945	0.66482165750953
6.0945813783289	0.66482186991160
6.0859207876573	0.66482206188182
6.0772847759984	0.66482223365771
6.0686732388664	0.66482238548130
6.0600860723671	0.66482251759903
6.0515231731934	0.66482263026160
6.0429844386212	0.66482272372390
6.0344697665056	0.66482279824490
6.0259790552764	0.66482285408752
6.0175122039342	0.66482289151852
6.0090691120465	0.66482291080841
6.0006496797438	0.66482291223132
5.9922538077154	0.66482289606491
5.9838813972056	0.66482286259023
5.9755323500100	0.66482281209162
5.9672065684713	0.66482274485662
5.9589039554760	0.66482266117584
5.9506244144502	0.66482256134285
5.9423678493558	0.66482244565404
5.9341341646873	0.66482231440859
5.9259232654675	0.66482216790825
5.9177350572444	0.66482200645734
5.9095694460871	0.66482183036254
5.9014263385827	0.66482163993285
5.8933056418321	0.66482143547943
5.8852072634472	0.66482121731552
5.8771311115468	0.66482098575632
5.8690770947533	0.66482074111888
5.8610451221896	0.66482048372199
5.8530351034752	0.66482021388605
5.8450469487229	0.66481993193301
5.8370805685358	0.66481963818619
5.8291358740035	0.66481933297024
5.8212127766990	0.66481901661099
5.8133111886756	0.66481868943535
5.8054310224632	0.66481835177119
5.7975721910656	0.66481800394726
5.7897346079567	0.66481764629307
5.7819181870781	0.66481727913877
5.7741228428351	0.66481690281505
5.7663484900942	0.66481651765305
5.7585950441798	0.66481612398422
5.7508624208709	0.66481572214026
5.7431505363985	0.66481531245297
5.7354593074421	0.66481489525419
5.7277886511272	0.66481447087564
5.7201384850219	0.66481403964888
5.7125087271341	0.66481360190517
5.7048992959087	0.66481315797536
5.6973101102242	0.66481270818982
5.6897410893908	0.66481225287833
5.6821921531463	0.66481179236996
5.6746632216544	0.66481132699299
5.6671542155009	0.66481085707481
5.6596650556919	0.66481038294182
5.6521956636501	0.66480990491932
5.6447459612126	0.66480942333144
5.6373158706281	0.66480893850104
5.6299053145540	0.66480845074959
5.6225142160540	0.66480796039710
5.6151424985952	0.66480746776202
5.6077900860456	0.66480697316115
5.6004569026714	0.66480647690954
5.5931428731343	0.66480597932043
5.5858479224893	0.66480548070512
5.5785719761816	0.66480498137291
5.5713149600446	0.66480448163100
5.5640768002970	0.66480398178440
5.5568574235403	0.66480348213586
5.5496567567568	0.66480298298579
5.5424747273063	0.66480248463215
5.5353112629247	0.66480198737039
5.5281662917204	0.66480149149334
5.5210397421731	0.66480099729119
5.5139315431304	0.66480050505135
5.5068416238060	0.66480001505839
5.4997699137773	0.66479952759397
5.4927163429828	0.66479904293678
5.4856808417200	0.66479856136243
5.4786633406433	0.66479808314340
5.4716637707611	0.66479760854896
5.4646820634342	0.66479713784511
5.4577181503732	0.66479667129449
5.4507719636364	0.66479620915632
5.4438434356274	0.66479575168636
5.4369324990932	0.66479529913679
5.4300390871219	0.66479485175618
5.4231631331404	0.66479440978943
5.4163045709124	0.66479397347769
5.4094633345363	0.66479354305832
5.4026393584430	0.66479311876480
5.3958325773938	0.66479270082668
5.3890429264785	0.66479228946957
5.3822703411131	0.66479188491499
5.3755147570378	0.66479148738041
5.3687761103152	0.66479109707914
5.3620543373278	0.66479071422030
5.3553493747767	0.66479033900875
5.3486611596789	0.66478997164507
5.3419896293656	0.66478961232548
5.3353347214807	0.66478926124182
5.3286963739780	0.66478891858150
5.3220745251198	0.66478858452742
5.3154691134752	0.66478825925798
5.3088800779175	0.66478794294701
5.3023073576229	0.66478763576374
5.2957508920685	0.66478733787274
5.2892106210303	0.66478704943393
5.2826864845815	0.66478677060248
5.2761784230905	0.66478650152883
5.2696863772192	0.66478624235863
5.2632102879213	0.66478599323272
5.2567500964405	0.66478575428710
5.2503057443082	0.66478552565289
5.2438771733427	0.66478530745631
5.2374643256464	0.66478509981865
5.2310671436050	0.66478490285627
5.2246855698850	0.66478471668054
5.2183195474326	0.66478454139784
5.2119690194715	0.66478437710953
5.2056339295016	0.66478422391197
5.1993142212973	0.66478408189642
5.1930098389052	0.66478395114913
5.1867207266436	0.66478383175122
5.1804468290997	0.66478372377877
5.1741880911288	0.66478362730271
5.1679444578521	0.66478354238891
5.1617158746556	0.66478346909807
5.1555022871883	0.66478340748579
5.1493036413604	0.66478335760255
5.1431198833419	0.66478331949367
5.1369509595613	0.66478329319934
5.1307968167037	0.66478327875463
5.1246574017094	0.66478327618945
5.1185326617722	0.66478328552858
5.1124225443383	0.66478330679168
5.1063269971044	0.66478333999327
5.1002459680163	0.66478338514275
5.0941794052676	0.66478344224441
5.0881272572980	0.66478351129745
5.0820894727920	0.66478359229597
5.0760660006773	0.66478368522897
5.0700567901235	0.66478379008041
5.0640617905405	0.66478390682919
5.0580809515775	0.66478403544917
5.0521142231210	0.66478417590921
5.0461615552937	0.66478432817314
5.0402228984533	0.66478449219985
5.0342982031906	0.66478466794325
5.0283874203287	0.66478485535234
5.0224905009214	0.66478505437119
5.0166073962517	0.66478526493901
5.0107380578305	0.66478548699016
5.0048824373957	0.66478572045415
4.9990404869101	0.66478596525572
4.9932121585610	0.66478622131486
4.9873974047579	0.66478648854681
4.9815961781323	0.66478676686213
4.9758084315353	0.66478705616672
4.9700341180371	0.66478735636185
4.9642731909256	0.66478766734424
4.9585256037049	0.66478798900603
4.9527913100942	0.66478832123488
4.9470702640264	0.66478866391401
4.9413624196473	0.66478901692218
4.9356677313138	0.66478938013383
4.9299861535932	0.66478975341904
4.9243176412615	0.66479013664365
4.9186621493027	0.66479052966923
4.9130196329072	0.66479093235322
4.9073900474709	0.66479134454889
4.9017733485939	0.66479176610548
4.8961694920790	0.66479219686818
4.8905784339315	0.66479263667823
4.8850001303569	0.66479308537296
4.8794345377604	0.66479354278584
4.8738816127459	0.66479400874655
4.8683413121143	0.66479448308105
4.8628135928629	0.66479496561161
4.8572984121841	0.66479545615689
4.8517957274640	0.66479595453201
4.8463054962819	0.66479646054861
4.8408276764088	0.66479697401488
4.8353622258065	0.66479749473569
