#Parameters = {thARC=0.2; nARC=3; thsub=1; p=1; nSub=3.5}
#"Wavelength / um"	"T (590) [Real Part]"
#---------------------------------------
14.989622900000	0.69752049419710
14.937342202292	0.69759385111148
14.885424925521	0.69766645816960
14.833867293419	0.69773832802414
14.782665581854	0.69780947324879
14.731816117936	0.69787990633773
14.681315279138	0.69794963970505
14.631159492435	0.69801868568426
14.581345233463	0.69808705652778
14.531869025691	0.69815476440650
14.482727439614	0.69822182140922
14.433917091960	0.69828823954230
14.385434644914	0.69835403072915
14.337276805356	0.69841920680980
14.289440324118	0.69848377954057
14.241921995249	0.69854776059359
14.194718655303	0.69861116155645
14.147827182633	0.69867399393186
14.101244496707	0.69873626913726
14.054967557431	0.69879799850452
14.008993364486	0.69885919327957
13.963318956684	0.69891986462216
13.917941411328	0.69898002360549
13.872857843591	0.69903968121602
13.828065405904	0.69909884835310
13.783561287356	0.69915753582880
13.739342713107	0.69921575436765
13.695406943810	0.69927351460640
13.651751275046	0.69933082709381
13.608373036768	0.69938770229046
13.565269592760	0.69944415056859
13.522438340099	0.69950018221186
13.479876708633	0.69955580741527
13.437582160466	0.69961103628497
13.395552189455	0.69966587883811
13.353784320713	0.69972034500277
13.312276110124	0.69977444461782
13.271025143869	0.69982818743282
13.230029037952	0.69988158310793
13.189285437747	0.69993464121390
13.148792017544	0.69998737123192
13.108546480105	0.70003978255362
13.068546556234	0.70009188448104
13.028790004346	0.70014368622658
12.989274610052	0.70019519691302
12.949998185745	0.70024642557349
12.910958570198	0.70029738115146
12.872153628167	0.70034807250082
12.833581250000	0.70039850838588
12.795239351259	0.70044869748137
12.757125872340	0.70049864837258
12.719238778108	0.70054836955535
12.681576057530	0.70059786943618
12.644135723323	0.70064715633229
12.606915811606	0.70069623847173
12.569914381551	0.70074512399351
12.533129515050	0.70079382094765
12.496559316382	0.70084233729536
12.460201911887	0.70089068090915
12.424055449648	0.70093885957296
12.388118099174	0.70098688098236
12.352388051092	0.70103475274467
12.316863516845	0.70108248237912
12.281542728390	0.70113007731709
12.246423937908	0.70117754490223
12.211505417515	0.70122489239071
12.176785458976	0.70127212695138
12.142262373431	0.70131925566606
12.107934491115	0.70136628552966
12.073800161095	0.70141322345049
12.039857751004	0.70146007625048
12.006105646776	0.70150685066543
11.972542252396	0.70155355334523
11.939165989646	0.70160019085420
11.905975297855	0.70164676967126
11.872968633663	0.70169329619032
11.840144470774	0.70173977672046
11.807501299724	0.70178621748632
11.775037627651	0.70183262462832
11.742751978065	0.70187900420301
11.710642890625	0.70192536218341
11.678708920919	0.70197170445925
11.646948640249	0.70201803683739
11.615360635413	0.70206436504208
11.583943508501	0.70211069471538
11.552695876686	0.70215703141741
11.521616372022	0.70220338062680
11.490703641242	0.70224974774098
11.459956345566	0.70229613807659
11.429373160503	0.70234255686984
11.398952775665	0.70238900927688
11.368693894577	0.70243550037417
11.338595234493	0.70248203515892
11.308655526217	0.70252861854943
11.278873513920	0.70257525538553
11.249247954972	0.70262195042895
11.219777619760	0.70266870836377
11.190461291527	0.70271553379680
11.161297766195	0.70276243125802
11.132285852209	0.70280940520100
11.103424370370	0.70285646000333
11.074712153676	0.70290359996707
11.046148047163	0.70295082931915
11.017730907755	0.70299815221186
10.989459604106	0.70304557272327
10.961333016453	0.70309309485767
10.933350036470	0.70314072254608
10.905509567115	0.70318845964665
10.877810522496	0.70323630994515
10.850251827723	0.70328427715543
10.822832418773	0.70333236491993
10.795551242348	0.70338057681009
10.768407255747	0.70342891632687
10.741399426729	0.70347738690122
10.714526733381	0.70352599189459
10.687788163993	0.70357473459936
10.661182716927	0.70362361823940
10.634709400497	0.70367264597053
10.608367232838	0.70372182088100
10.582155241793	0.70377114599202
10.556072464789	0.70382062425825
10.530117948718	0.70387025856834
10.504290749825	0.70392005174535
10.478589933590	0.70397000654737
10.453014574616	0.70402012566796
10.427563756522	0.70407041173668
10.402236571825	0.70412086731961
10.377032121841	0.70417149491991
10.351949516575	0.70422229697825
10.326987874612	0.70427327587344
10.302146323024	0.70432443392286
10.277423997257	0.70437577338307
10.252820041040	0.70442729645027
10.228333606278	0.70447900526087
10.203963852961	0.70453090189203
10.179709949066	0.70458298836215
10.155571070461	0.70463526663145
10.131546400811	0.70468773860247
10.107635131490	0.70474040612065
10.083836461487	0.70479327097480
10.060149597315	0.70484633489774
10.036573752929	0.70489959956674
10.013108149633	0.70495306660412
9.9897520159947	0.70500673757777
9.9665045877660	0.70506061400172
9.9433651077944	0.70511469733664
9.9203328259431	0.70516898899042
9.8974069990096	0.70522349031871
9.8745868906456	0.70527820262544
9.8518717712783	0.70533312716340
9.8292609180328	0.70538826513477
9.8067536146549	0.70544361769166
9.7843491514360	0.70549918593667
9.7620468251384	0.70555497092343
9.7398459389214	0.70561097365715
9.7177458022690	0.70566719509516
9.6957457309185	0.70572363614747
9.6738450467893	0.70578029767728
9.6520430779137	0.70583718050160
9.6303391583681	0.70589428539171
9.6087326282051	0.70595161307376
9.5872228333866	0.70600916422932
9.5658091257179	0.70606693949589
9.5444908627826	0.70612493946746
9.5232674078780	0.70618316469506
9.5021381299525	0.70624161568730
9.4811024035421	0.70630029291092
9.4601596087094	0.70635919679130
9.4393091309824	0.70641832771306
9.4185503612944	0.70647768602053
9.3978826959248	0.70653727201836
9.3773055364404	0.70659708597199
9.3568182896380	0.70665712810824
9.3364203674868	0.70671739861584
9.3161111870727	0.70677789764592
9.2958901705426	0.70683862531260
9.2757567450495	0.70689958169350
9.2557103426984	0.70696076683026
9.2357504004929	0.70702218072910
9.2158763602828	0.70708382336130
9.1960876687117	0.70714569466380
9.1763837771656	0.70720779453964
9.1567641417227	0.70727012285857
9.1372282231027	0.70733267945750
9.1177754866180	0.70739546414107
9.0984054021244	0.70745847668215
9.0791174439733	0.70752171682237
9.0599110909640	0.70758518427259
9.0407858262967	0.70764887871350
9.0217411375263	0.70771279979605
9.0027765165165	0.70777694714201
8.9838914593947	0.70784132034446
8.9650854665072	0.70790591896829
8.9463580423754	0.70797074255073
8.9277086956522	0.70803579060183
8.9091369390788	0.70810106260496
8.8906422894425	0.70816655801733
8.8722242675348	0.70823227627046
8.8538823981099	0.70829821677070
8.8356162098438	0.70836437889968
8.8174252352941	0.70843076201487
8.7993090108600	0.70849736544998
8.7812670767428	0.70856418851552
8.7632989769073	0.70863123049924
8.7454042590432	0.70869849066662
8.7275824745269	0.70876596826134
8.7098331783847	0.70883366250579
8.6921559292549	0.70890157260149
8.6745502893519	0.70896969772959
8.6570158244297	0.70903803705135
8.6395521037464	0.70910658970855
8.6221587000288	0.70917535482403
8.6048351894374	0.70924433150208
8.5875811515325	0.70931351882894
8.5703961692396	0.70938291587321
8.5532798288160	0.70945252168637
8.5362317198178	0.70952233530314
8.5192514350668	0.70959235574201
8.5023385706183	0.70966258200561
8.4854927257288	0.70973301308121
8.4687135028249	0.70980364794111
8.4520005074711	0.70987448554309
8.4353533483399	0.70994552483085
8.4187716371806	0.71001676473443
8.4022549887892	0.71008820417062
8.3858030209790	0.71015984204340
8.3694153545505	0.71023167724436
8.3530916132627	0.71030370865309
8.3368314238042	0.71037593513761
8.3206344157646	0.71044835555479
8.3045002216066	0.71052096875072
8.2884284766381	0.71059377356116
8.2724188189845	0.71066676881188
8.2564708895621	0.71073995331910
8.2405843320506	0.71081332588989
8.2247587928669	0.71088688532250
8.2089939211391	0.71096063040681
8.1932893686800	0.71103455992467
8.1776447899618	0.71110867265031
8.1620598420909	0.71118296735069
8.1465341847826	0.71125744278587
8.1310674803363	0.71133209770942
8.1156593936113	0.71140693086871
8.1003095920022	0.71148194100536
8.0850177454153	0.71155712685552
8.0697835262450	0.71163248715029
8.0546066093498	0.71170802061602
8.0394866720300	0.71178372597466
8.0244233940043	0.71185960194417
8.0094164573871	0.71193564723877
7.9944655466667	0.71201186056933
7.9795703486825	0.71208824064370
7.9647305526036	0.71216478616701
7.9499458499072	0.71224149584205
7.9352159343568	0.71231836836953
7.9205405019815	0.71239540244844
7.9059192510549	0.71247259677636
7.8913518820742	0.71254995004975
7.8768380977404	0.71262746096428
7.8623776029373	0.71270512821514
7.8479701047120	0.71278295049731
7.8336153122550	0.71286092650588
7.8193129368805	0.71293905493633
7.8050626920073	0.71301733448484
7.7908642931393	0.71309576384855
7.7767174578470	0.71317434172587
7.7626219057483	0.71325306681673
7.7485773584906	0.71333193782286
7.7345835397317	0.71341095344807
7.7206401751223	0.71349011239855
7.7067469922879	0.71356941338304
7.6929037208109	0.71364885511318
7.6791100922131	0.71372843630373
7.6653658399386	0.71380815567283
7.6516706993364	0.71388801194223
7.6380244076433	0.71396800383754
7.6244267039674	0.71404813008850
7.6108773292714	0.71412838942919
7.5973760263558	0.71420878059825
7.5839225398432	0.71428930233914
7.5705166161616	0.71436995340036
7.5571580035291	0.71445073253564
7.5438464519376	0.71453163850421
7.5305817131374	0.71461267007096
7.5173635406219	0.71469382600671
7.5041916896120	0.71477510508834
7.4910659170415	0.71485650609907
7.4779859815415	0.71493802782862
7.4649516434263	0.71501966907339
7.4519626646781	0.71510142863671
7.4390188089330	0.71518330532894
7.4261198414664	0.71526529796776
7.4132655291790	0.71534740537824
7.4004556405826	0.71542962639311
7.3876899457861	0.71551195985289
7.3749682164822	0.71559440460604
7.3622902259332	0.71567695950917
7.3496557489581	0.71575962342717
7.3370645619187	0.71584239523338
7.3245164427071	0.71592527380975
7.3120111707317	0.71600825804698
7.2995485269053	0.71609134684465
7.2871282936315	0.71617453911141
7.2747502547925	0.71625783376509
7.2624141957364	0.71634122973283
7.2501199032648	0.71642472595121
7.2378671656205	0.71650832136641
7.2256557724753	0.71659201493431
7.2134855149182	0.71667580562062
7.2013561854432	0.71675969240096
7.1892675779376	0.71684367426106
7.1772194876706	0.71692775019678
7.1652117112811	0.71701191921427
7.1532440467669	0.71709618033006
7.1413162934731	0.71718053257116
7.1294282520809	0.71726497497515
7.1175797245964	0.71734950659027
7.1057705143399	0.71743412647553
7.0940004259347	0.71751883370079
7.0822692652965	0.71760362734683
7.0705768396226	0.71768850650541
7.0589229573817	0.71777347027942
7.0473074283028	0.71785851778286
7.0357300633654	0.71794364814097
7.0241906747891	0.71802886049027
7.0126890760234	0.71811415397864
7.0012250817375	0.71819952776536
6.9897985078107	0.71828498102116
6.9784091713222	0.71837051292831
6.9670568905415	0.71845612268063
6.9557414849188	0.71854180948354
6.9444627750753	0.71862757255413
6.9332205827937	0.71871341112117
6.9220147310090	0.71879932442514
6.9108450437990	0.71888531171832
6.8997113463751	0.71897137226473
6.8886134650735	0.71905750534023
6.8775512273457	0.71914371023251
6.8665244617499	0.71922998624113
6.8555329979419	0.71931633267749
6.8445766666667	0.71940274886491
6.8336552997493	0.71948923413860
6.8227687300865	0.71957578784566
6.8119167916383	0.71966240934511
6.8010993194192	0.71974909800789
6.7903161494904	0.71983585321684
6.7795671189507	0.71992267436671
6.7688520659291	0.72000956086415
6.7581708295762	0.72009651212770
6.7475232500563	0.72018352758776
6.7369091685393	0.72027060668663
6.7263284271932	0.72035774887840
6.7157808691756	0.72044495362902
6.7052663386267	0.72053222041624
6.6947846806610	0.72061954872954
6.6843357413601	0.72070693807019
6.6739193677649	0.72079438795114
6.6635354078684	0.72088189789701
6.6531837106081	0.72096946744407
6.6428641258586	0.72105709614019
6.6325765044248	0.72114478354479
6.6223206980340	0.72123252922880
6.6120965593295	0.72132033277459
6.6019039418630	0.72140819377598
6.5917427000879	0.72149611183812
6.5816126893524	0.72158408657748
6.5715137658922	0.72167211762177
6.5614457868243	0.72176020460989
6.5514086101399	0.72184834719185
6.5414020946978	0.72193654502875
6.5314261002179	0.72202479779267
6.5214804872743	0.72211310516660
6.5115651172893	0.72220146684441
6.5016798525266	0.72228988253073
6.4918245560849	0.72237835194091
6.4819990918919	0.72246687480092
6.4722033246978	0.72255545084729
6.4624371200690	0.72264407982700
6.4527003443823	0.72273276149742
6.4429928648184	0.72282149562623
6.4333145493562	0.72291028199129
6.4236652667667	0.72299912038061
6.4140448866068	0.72308801059222
6.4044532792138	0.72317695243406
6.3948903156997	0.72326594572395
6.3853558679446	0.72335499028942
6.3758498085921	0.72344408596767
6.3663720110427	0.72353323260541
6.3569223494487	0.72362243005883
6.3475006987084	0.72371167819342
6.3381069344609	0.72380097688393
6.3287409330800	0.72389032601420
6.3194025716695	0.72397972547713
6.3100917280572	0.72406917517448
6.3008082807902	0.72415867501684
6.2915521091291	0.72424822492344
6.2823230930427	0.72433782482210
6.2731211132036	0.72442747464909
6.2639460509820	0.72451717434899
6.2547977884415	0.72460692387462
6.2456762083333	0.72469672318685
6.2365811940919	0.72478657225456
6.2275126298297	0.72487647105445
6.2184704003319	0.72496641957094
6.2094543910522	0.72505641779607
6.2004644881075	0.72514646572933
6.1915005782734	0.72523656337756
6.1825625489792	0.72532671075480
6.1736502883031	0.72541690788219
6.1647636849681	0.72550715478783
6.1559026283368	0.72559745150661
6.1470670084068	0.72568779808015
6.1382567158067	0.72577819455658
6.1294716417910	0.72586864099048
6.1207116782360	0.72595913744272
6.1119767176351	0.72604968398029
6.1032666530945	0.72614028067623
6.0945813783289	0.72623092760941
6.0859207876573	0.72632162486448
6.0772847759984	0.72641237253166
6.0686732388664	0.72650317070663
6.0600860723671	0.72659401949040
6.0515231731934	0.72668491898913
6.0429844386212	0.72677586931405
6.0344697665056	0.72686687058125
6.0259790552764	0.72695792291160
6.0175122039342	0.72704902643054
6.0090691120465	0.72714018126800
6.0006496797438	0.72723138755823
5.9922538077154	0.72732264543964
5.9838813972056	0.72741395505469
5.9755323500100	0.72750531654972
5.9672065684713	0.72759673007480
5.9589039554760	0.72768819578361
5.9506244144502	0.72777971383328
5.9423678493558	0.72787128438425
5.9341341646873	0.72796290760011
5.9259232654675	0.72805458364746
5.9177350572444	0.72814631269579
5.9095694460871	0.72823809491730
5.9014263385827	0.72832993048676
5.8933056418321	0.72842181958140
5.8852072634472	0.72851376238070
5.8771311115468	0.72860575906630
5.8690770947533	0.72869780982184
5.8610451221896	0.72878991483280
5.8530351034752	0.72888207428636
5.8450469487229	0.72897428837129
5.8370805685358	0.72906655727773
5.8291358740035	0.72915888119714
5.8212127766990	0.72925126032206
5.8133111886756	0.72934369484606
5.8054310224632	0.72943618496351
5.7975721910656	0.72952873086951
5.7897346079567	0.72962133275970
5.7819181870781	0.72971399083013
5.7741228428351	0.72980670527714
5.7663484900942	0.72989947629718
5.7585950441798	0.72999230408672
5.7508624208709	0.73008518884204
5.7431505363985	0.73017813075918
5.7354593074421	0.73027113003372
5.7277886511272	0.73036418686069
5.7201384850219	0.73045730143442
5.7125087271341	0.73055047394841
5.7048992959087	0.73064370459517
5.6973101102242	0.73073699356611
5.6897410893908	0.73083034105141
5.6821921531463	0.73092374723988
5.6746632216544	0.73101721231879
5.6671542155009	0.73111073647381
5.6596650556919	0.73120431988882
5.6521956636501	0.73129796274581
5.6447459612126	0.73139166522475
5.6373158706281	0.73148542750346
5.6299053145540	0.73157924975745
5.6225142160540	0.73167313215986
5.6151424985952	0.73176707488129
5.6077900860456	0.73186107808968
5.6004569026714	0.73195514195020
5.5931428731343	0.73204926662512
5.5858479224893	0.73214345227371
5.5785719761816	0.73223769905208
5.5713149600446	0.73233200711312
5.5640768002970	0.73242637660632
5.5568574235403	0.73252080767771
5.5496567567568	0.73261530046972
5.5424747273063	0.73270985512106
5.5353112629247	0.73280447176663
5.5281662917204	0.73289915053741
5.5210397421731	0.73299389156033
5.5139315431304	0.73308869495817
5.5068416238060	0.73318356084947
5.4997699137773	0.73327848934842
5.4927163429828	0.73337348056476
5.4856808417200	0.73346853460364
5.4786633406433	0.73356365156559
5.4716637707611	0.73365883154638
5.4646820634342	0.73375407463690
5.4577181503732	0.73384938092312
5.4507719636364	0.73394475048598
5.4438434356274	0.73404018340125
5.4369324990932	0.73413567973952
5.4300390871219	0.73423123956604
5.4231631331404	0.73432686294068
5.4163045709124	0.73442254991781
5.4094633345363	0.73451830054627
5.4026393584430	0.73461411486920
5.3958325773938	0.73470999292405
5.3890429264785	0.73480593474247
5.3822703411131	0.73490194035018
5.3755147570378	0.73499800976699
5.3687761103152	0.73509414300665
5.3620543373278	0.73519034007682
5.3553493747767	0.73528660097899
5.3486611596789	0.73538292570839
5.3419896293656	0.73547931425396
5.3353347214807	0.73557576659826
5.3286963739780	0.73567228271743
5.3220745251198	0.73576886258110
5.3154691134752	0.73586550615235
5.3088800779175	0.73596221338766
5.3023073576229	0.73605898423684
5.2957508920685	0.73615581864297
5.2892106210303	0.73625271654239
5.2826864845815	0.73634967786460
5.2761784230905	0.73644670253223
5.2696863772192	0.73654379046102
5.2632102879213	0.73664094155974
5.2567500964405	0.73673815573018
5.2503057443082	0.73683543286707
5.2438771733427	0.73693277285810
5.2374643256464	0.73703017558382
5.2310671436050	0.73712764091766
5.2246855698850	0.73722516872587
5.2183195474326	0.73732275886750
5.2119690194715	0.73742041119436
5.2056339295016	0.73751812555102
5.1993142212973	0.73761590177476
5.1930098389052	0.73771373969555
5.1867207266436	0.73781163913606
5.1804468290997	0.73790959991162
5.1741880911288	0.73800762183018
5.1679444578521	0.73810570469236
5.1617158746556	0.73820384829137
5.1555022871883	0.73830205241304
5.1493036413604	0.73840031683583
5.1431198833419	0.73849864133075
5.1369509595613	0.73859702566146
5.1307968167037	0.73869546958417
5.1246574017094	0.73879397284772
5.1185326617722	0.73889253519352
5.1124225443383	0.73899115635560
5.1063269971044	0.73908983606059
5.1002459680163	0.73918857402775
5.0941794052676	0.73928736996896
5.0881272572980	0.73938622358874
5.0820894727920	0.73948513458428
5.0760660006773	0.73958410264544
5.0700567901235	0.73968312745477
5.0640617905405	0.73978220868753
5.0580809515775	0.73988134601172
5.0521142231210	0.73998053908811
5.0461615552937	0.74007978757026
5.0402228984533	0.74017909110454
5.0342982031906	0.74027844933016
5.0283874203287	0.74037786187925
5.0224905009214	0.74047732837682
5.0166073962517	0.74057684844085
5.0107380578305	0.74067642168230
5.0048824373957	0.74077604770520
4.9990404869101	0.74087572610662
4.9932121585610	0.74097545647676
4.9873974047579	0.74107523839901
4.9815961781323	0.74117507144995
4.9758084315353	0.74127495519945
4.9700341180371	0.74137488921067
4.9642731909256	0.74147487304019
4.9585256037049	0.74157490623798
4.9527913100942	0.74167498834752
4.9470702640264	0.74177511890584
4.9413624196473	0.74187529744356
4.9356677313138	0.74197552348500
4.9299861535932	0.74207579654822
4.9243176412615	0.74217611614505
4.9186621493027	0.74227648178124
4.9130196329072	0.74237689295647
4.9073900474709	0.74247734916443
4.9017733485939	0.74257784989292
4.8961694920790	0.74267839462390
4.8905784339315	0.74277898283359
4.8850001303569	0.74287961399252
4.8794345377604	0.74298028756564
4.8738816127459	0.74308100301238
4.8683413121143	0.74318175978677
4.8628135928629	0.74328255733748
4.8572984121841	0.74338339510794
4.8517957274640	0.74348427253641
4.8463054962819	0.74358518905609
4.8408276764088	0.74368614409521
4.8353622258065	0.74378713707709
