#Parameters = {thARC=1; nARC=1; thsub=1; p=1; nSub=1.25}
#"Wavelength / um"	"T (60) [Real Part]"
#--------------------------------------
14.989622900000	0.98765432694283
14.937342202292	0.98773878932087
14.885424925521	0.98782191733802
14.833867293419	0.98790372045064
14.782665581854	0.98798420810979
14.731816117936	0.98806338976077
14.681315279138	0.98814127484259
14.631159492435	0.98821787278754
14.581345233463	0.98829319302069
14.531869025691	0.98836724495942
14.482727439614	0.98844003801294
14.433917091960	0.98851158158185
14.385434644914	0.98858188505767
14.337276805356	0.98865095782235
14.289440324118	0.98871880924784
14.241921995249	0.98878544869567
14.194718655303	0.98885088551640
14.147827182633	0.98891512904930
14.101244496707	0.98897818862180
14.054967557431	0.98904007354910
14.008993364486	0.98910079313374
13.963318956684	0.98916035666514
13.917941411328	0.98921877341918
13.872857843591	0.98927605265777
13.828065405904	0.98933220362845
13.783561287356	0.98938723556393
13.739342713107	0.98944115768170
13.695406943810	0.98949397918361
13.651751275046	0.98954570925546
13.608373036768	0.98959635706659
13.565269592760	0.98964593176949
13.522438340099	0.98969444249937
13.479876708633	0.98974189837380
13.437582160466	0.98978830849231
13.395552189455	0.98983368193596
13.353784320713	0.98987802776701
13.312276110124	0.98992135502851
13.271025143869	0.98996367274393
13.230029037952	0.99000498991675
13.189285437747	0.99004531553016
13.148792017544	0.99008465854662
13.108546480105	0.99012302790754
13.068546556234	0.99016043253288
13.028790004346	0.99019688132085
12.989274610052	0.99023238314749
12.949998185745	0.99026694686638
12.910958570198	0.99030058130823
12.872153628167	0.99033329528061
12.833581250000	0.99036509756753
12.795239351259	0.99039599692919
12.757125872340	0.99042600210155
12.719238778108	0.99045512179610
12.681576057530	0.99048336469946
12.644135723323	0.99051073947310
12.606915811606	0.99053725475299
12.569914381551	0.99056291914932
12.533129515050	0.99058774124616
12.496559316382	0.99061172960117
12.460201911887	0.99063489274528
12.424055449648	0.99065723918241
12.388118099174	0.99067877738916
12.352388051092	0.99069951581451
12.316863516845	0.99071946287955
12.281542728390	0.99073862697718
12.246423937908	0.99075701647182
12.211505417515	0.99077463969915
12.176785458976	0.99079150496584
12.142262373431	0.99080762054923
12.107934491115	0.99082299469712
12.073800161095	0.99083763562748
12.039857751004	0.99085155152818
12.006105646776	0.99086475055674
11.972542252396	0.99087724084009
11.939165989646	0.99088903047431
11.905975297855	0.99090012752436
11.872968633663	0.99091054002386
11.840144470774	0.99092027597486
11.807501299724	0.99092934334758
11.775037627651	0.99093775008019
11.742751978065	0.99094550407857
11.710642890625	0.99095261321610
11.678708920919	0.99095908533341
11.646948640249	0.99096492823821
11.615360635413	0.99097014970501
11.583943508501	0.99097475747497
11.552695876686	0.99097875925563
11.521616372022	0.99098216272075
11.490703641242	0.99098497551012
11.459956345566	0.99098720522930
11.429373160503	0.99098885944947
11.398952775665	0.99098994570724
11.368693894577	0.99099047150443
11.338595234493	0.99099044430794
11.308655526217	0.99098987154949
11.278873513920	0.99098876062552
11.249247954972	0.99098711889696
11.219777619760	0.99098495368910
11.190461291527	0.99098227229136
11.161297766195	0.99097908195721
11.132285852209	0.99097538990394
11.103424370370	0.99097120331253
11.074712153676	0.99096652932749
11.046148047163	0.99096137505670
11.017730907755	0.99095574757127
10.989459604106	0.99094965390541
10.961333016453	0.99094310105626
10.933350036470	0.99093609598374
10.905509567115	0.99092864561048
10.877810522496	0.99092075682161
10.850251827723	0.99091243646466
10.822832418773	0.99090369134947
10.795551242348	0.99089452824800
10.768407255747	0.99088495389426
10.741399426729	0.99087497498417
10.714526733381	0.99086459817545
10.687788163993	0.99085383008753
10.661182716927	0.99084267730139
10.634709400497	0.99083114635952
10.608367232838	0.99081924376578
10.582155241793	0.99080697598528
10.556072464789	0.99079434944434
10.530117948718	0.99078137053037
10.504290749825	0.99076804559177
10.478589933590	0.99075438093784
10.453014574616	0.99074038283872
10.427563756522	0.99072605752532
10.402236571825	0.99071141118917
10.377032121841	0.99069644998243
10.351949516575	0.99068118001777
10.326987874612	0.99066560736831
10.302146323024	0.99064973806755
10.277423997257	0.99063357810932
10.252820041040	0.99061713344771
10.228333606278	0.99060040999699
10.203963852961	0.99058341363160
10.179709949066	0.99056615018608
10.155571070461	0.99054862545496
10.131546400811	0.99053084519283
10.107635131490	0.99051281511419
10.083836461487	0.99049454089347
10.060149597315	0.99047602816493
10.036573752929	0.99045728252272
10.013108149633	0.99043830952075
9.9897520159947	0.99041911467269
9.9665045877660	0.99039970345198
9.9433651077944	0.99038008129175
9.9203328259431	0.99036025358483
9.8974069990096	0.99034022568369
9.8745868906456	0.99032000290048
9.8518717712783	0.99029959050698
9.8292609180328	0.99027899373456
9.8067536146549	0.99025821777423
9.7843491514360	0.99023726777657
9.7620468251384	0.99021614885179
9.7398459389214	0.99019486606964
9.7177458022690	0.99017342445951
9.6957457309185	0.99015182901033
9.6738450467893	0.99013008467066
9.6520430779137	0.99010819634863
9.6303391583681	0.99008616891200
9.6087326282051	0.99006400718813
9.5872228333866	0.99004171596402
9.5658091257179	0.99001929998629
9.5444908627826	0.98999676396125
9.5232674078780	0.98997411255489
9.5021381299525	0.98995135039287
9.4811024035421	0.98992848206062
9.4601596087094	0.98990551210329
9.4393091309824	0.98988244502583
9.4185503612944	0.98985928529299
9.3978826959248	0.98983603732937
9.3773055364404	0.98981270551946
9.3568182896380	0.98978929420765
9.3364203674868	0.98976580769829
9.3161111870727	0.98974225025572
9.2958901705426	0.98971862610435
9.2757567450495	0.98969493942863
9.2557103426984	0.98967119437319
9.2357504004929	0.98964739504280
9.2158763602828	0.98962354550248
9.1960876687117	0.98959964977755
9.1763837771656	0.98957571185364
9.1567641417227	0.98955173567682
9.1372282231027	0.98952772515358
9.1177754866180	0.98950368415094
9.0984054021244	0.98947961649652
9.0791174439733	0.98945552597856
9.0599110909640	0.98943141634603
9.0407858262967	0.98940729130869
9.0217411375263	0.98938315453711
9.0027765165165	0.98935900966284
8.9838914593947	0.98933486027839
8.9650854665072	0.98931070993736
8.9463580423754	0.98928656215448
8.9277086956522	0.98926242040575
8.9091369390788	0.98923828812845
8.8906422894425	0.98921416872126
8.8722242675348	0.98919006554433
8.8538823981099	0.98916598191941
8.8356162098438	0.98914192112986
8.8174252352941	0.98911788642080
8.7993090108600	0.98909388099918
8.7812670767428	0.98906990803388
8.7632989769073	0.98904597065579
8.7454042590432	0.98902207195793
8.7275824745269	0.98899821499551
8.7098331783847	0.98897440278607
8.6921559292549	0.98895063830956
8.6745502893519	0.98892692450843
8.6570158244297	0.98890326428775
8.6395521037464	0.98887966051532
8.6221587000288	0.98885611602178
8.6048351894374	0.98883263360067
8.5875811515325	0.98880921600861
8.5703961692396	0.98878586596535
8.5532798288160	0.98876258615393
8.5362317198178	0.98873937922076
8.5192514350668	0.98871624777575
8.5023385706183	0.98869319439242
8.4854927257288	0.98867022160803
8.4687135028249	0.98864733192367
8.4520005074711	0.98862452780441
8.4353533483399	0.98860181167943
8.4187716371806	0.98857918594209
8.4022549887892	0.98855665295011
8.3858030209790	0.98853421502568
8.3694153545505	0.98851187445555
8.3530916132627	0.98848963349123
8.3368314238042	0.98846749434905
8.3206344157646	0.98844545921032
8.3045002216066	0.98842353022147
8.2884284766381	0.98840170949416
8.2724188189845	0.98837999910544
8.2564708895621	0.98835840109785
8.2405843320506	0.98833691747961
8.2247587928669	0.98831555022468
8.2089939211391	0.98829430127300
8.1932893686800	0.98827317253051
8.1776447899618	0.98825216586941
8.1620598420909	0.98823128312820
8.1465341847826	0.98821052611189
8.1310674803363	0.98818989659212
8.1156593936113	0.98816939630731
8.1003095920022	0.98814902696278
8.0850177454153	0.98812879023093
8.0697835262450	0.98810868775140
8.0546066093498	0.98808872113115
8.0394866720300	0.98806889194469
8.0244233940043	0.98804920173419
8.0094164573871	0.98802965200961
7.9944655466667	0.98801024424891
7.9795703486825	0.98799097989816
7.9647305526036	0.98797186037171
7.9499458499072	0.98795288705233
7.9352159343568	0.98793406129140
7.9205405019815	0.98791538440903
7.9059192510549	0.98789685769424
7.8913518820742	0.98787848240509
7.8768380977404	0.98786025976889
7.8623776029373	0.98784219098232
7.8479701047120	0.98782427721160
7.8336153122550	0.98780651959264
7.8193129368805	0.98778891923125
7.8050626920073	0.98777147720323
7.7908642931393	0.98775419455461
7.7767174578470	0.98773707230175
7.7626219057483	0.98772011143154
7.7485773584906	0.98770331290159
7.7345835397317	0.98768667764031
7.7206401751223	0.98767020654719
7.7067469922879	0.98765390049288
7.6929037208109	0.98763776031941
7.6791100922131	0.98762178684032
7.6653658399386	0.98760598084088
7.6516706993364	0.98759034307821
7.6380244076433	0.98757487428148
7.6244267039674	0.98755957515209
7.6108773292714	0.98754444636380
7.5973760263558	0.98752948856296
7.5839225398432	0.98751470236866
7.5705166161616	0.98750008837286
7.5571580035291	0.98748564714065
7.5438464519376	0.98747137921036
7.5305817131374	0.98745728509376
7.5173635406219	0.98744336527623
7.5041916896120	0.98742962021696
7.4910659170415	0.98741605034909
7.4779859815415	0.98740265607991
7.4649516434263	0.98738943779104
7.4519626646781	0.98737639583859
7.4390188089330	0.98736353055338
7.4261198414664	0.98735084224107
7.4132655291790	0.98733833118237
7.4004556405826	0.98732599763323
7.3876899457861	0.98731384182499
7.3749682164822	0.98730186396458
7.3622902259332	0.98729006423470
7.3496557489581	0.98727844279400
7.3370645619187	0.98726699977728
7.3245164427071	0.98725573529564
7.3120111707317	0.98724464943669
7.2995485269053	0.98723374226473
7.2871282936315	0.98722301382091
7.2747502547925	0.98721246412347
7.2624141957364	0.98720209316784
7.2501199032648	0.98719190092692
7.2378671656205	0.98718188735119
7.2256557724753	0.98717205236893
7.2134855149182	0.98716239588643
7.2013561854432	0.98715291778810
7.1892675779376	0.98714361793674
7.1772194876706	0.98713449617368
7.1652117112811	0.98712555231897
7.1532440467669	0.98711678617157
7.1413162934731	0.98710819750957
7.1294282520809	0.98709978609033
7.1175797245964	0.98709155165068
7.1057705143399	0.98708349390713
7.0940004259347	0.98707561255605
7.0822692652965	0.98706790727383
7.0705768396226	0.98706037771710
7.0589229573817	0.98705302352292
7.0473074283028	0.98704584430895
7.0357300633654	0.98703883967364
7.0241906747891	0.98703200919644
7.0126890760234	0.98702535243797
7.0012250817375	0.98701886894021
6.9897985078107	0.98701255822670
6.9784091713222	0.98700641980273
6.9670568905415	0.98700045315551
6.9557414849188	0.98699465775437
6.9444627750753	0.98698903305097
6.9332205827937	0.98698357847947
6.9220147310090	0.98697829345671
6.9108450437990	0.98697317738242
6.8997113463751	0.98696822963939
6.8886134650735	0.98696344959371
6.8775512273457	0.98695883659486
6.8665244617499	0.98695438997603
6.8555329979419	0.98695010905419
6.8445766666667	0.98694599313035
6.8336552997493	0.98694204148974
6.8227687300865	0.98693825340197
6.8119167916383	0.98693462812128
6.8010993194192	0.98693116488664
6.7903161494904	0.98692786292202
6.7795671189507	0.98692472143656
6.7688520659291	0.98692173962473
6.7581708295762	0.98691891666654
6.7475232500563	0.98691625172774
6.7369091685393	0.98691374396000
6.7263284271932	0.98691139250107
6.7157808691756	0.98690919647504
6.7052663386267	0.98690715499244
6.6947846806610	0.98690526715051
6.6843357413601	0.98690353203332
6.6739193677649	0.98690194871203
6.6635354078684	0.98690051624501
6.6531837106081	0.98689923367807
6.6428641258586	0.98689810004462
6.6325765044248	0.98689711436590
6.6223206980340	0.98689627565112
6.6120965593295	0.98689558289768
6.6019039418630	0.98689503509133
6.5917427000879	0.98689463120640
6.5816126893524	0.98689437020593
6.5715137658922	0.98689425104191
6.5614457868243	0.98689427265543
6.5514086101399	0.98689443397689
6.5414020946978	0.98689473392615
6.5314261002179	0.98689517141278
6.5214804872743	0.98689574533616
6.5115651172893	0.98689645458574
6.5016798525266	0.98689729804120
6.4918245560849	0.98689827457260
6.4819990918919	0.98689938304063
6.4722033246978	0.98690062229673
6.4624371200690	0.98690199118331
6.4527003443823	0.98690348853393
6.4429928648184	0.98690511317347
6.4333145493562	0.98690686391833
6.4236652667667	0.98690873957659
6.4140448866068	0.98691073894821
6.4044532792138	0.98691286082520
6.3948903156997	0.98691510399183
6.3853558679446	0.98691746722474
6.3758498085921	0.98691994929322
6.3663720110427	0.98692254895930
6.3569223494487	0.98692526497799
6.3475006987084	0.98692809609743
6.3381069344609	0.98693104105906
6.3287409330800	0.98693409859784
6.3194025716695	0.98693726744237
6.3100917280572	0.98694054631513
6.3008082807902	0.98694393393261
6.2915521091291	0.98694742900550
6.2823230930427	0.98695103023887
6.2731211132036	0.98695473633234
6.2639460509820	0.98695854598029
6.2547977884415	0.98696245787195
6.2456762083333	0.98696647069167
6.2365811940919	0.98697058311903
6.2275126298297	0.98697479382905
6.2184704003319	0.98697910149234
6.2094543910522	0.98698350477527
6.2004644881075	0.98698800234017
6.1915005782734	0.98699259284547
6.1825625489792	0.98699727494588
6.1736502883031	0.98700204729257
6.1647636849681	0.98700690853333
6.1559026283368	0.98701185731274
6.1470670084068	0.98701689227234
6.1382567158067	0.98702201205080
6.1294716417910	0.98702721528408
6.1207116782360	0.98703250060560
6.1119767176351	0.98703786664640
6.1032666530945	0.98704331203533
6.0945813783289	0.98704883539919
6.0859207876573	0.98705443536289
6.0772847759984	0.98706011054963
6.0686732388664	0.98706585958107
6.0600860723671	0.98707168107745
6.0515231731934	0.98707757365782
6.0429844386212	0.98708353594013
6.0344697665056	0.98708956654143
6.0259790552764	0.98709566407803
6.0175122039342	0.98710182716565
6.0090691120465	0.98710805441956
6.0006496797438	0.98711434445478
5.9922538077154	0.98712069588621
5.9838813972056	0.98712710732877
5.9755323500100	0.98713357739759
5.9672065684713	0.98714010470816
5.9589039554760	0.98714668787645
5.9506244144502	0.98715332551910
5.9423678493558	0.98716001625355
5.9341341646873	0.98716675869822
5.9259232654675	0.98717355147262
5.9177350572444	0.98718039319754
5.9095694460871	0.98718728249517
5.9014263385827	0.98719421798927
5.8933056418321	0.98720119830531
5.8852072634472	0.98720822207059
5.8771311115468	0.98721528791445
5.8690770947533	0.98722239446835
5.8610451221896	0.98722954036606
5.8530351034752	0.98723672424378
5.8450469487229	0.98724394474028
5.8370805685358	0.98725120049708
5.8291358740035	0.98725849015853
5.8212127766990	0.98726581237201
5.8133111886756	0.98727316578803
5.8054310224632	0.98728054906040
5.7975721910656	0.98728796084633
5.7897346079567	0.98729539980661
5.7819181870781	0.98730286460570
5.7741228428351	0.98731035391193
5.7663484900942	0.98731786639755
5.7585950441798	0.98732540073895
5.7508624208709	0.98733295561673
5.7431505363985	0.98734052971586
5.7354593074421	0.98734812172580
5.7277886511272	0.98735573034066
5.7201384850219	0.98736335425928
5.7125087271341	0.98737099218538
5.7048992959087	0.98737864282773
5.6973101102242	0.98738630490019
5.6897410893908	0.98739397712192
5.6821921531463	0.98740165821744
5.6746632216544	0.98740934691681
5.6671542155009	0.98741704195571
5.6596650556919	0.98742474207558
5.6521956636501	0.98743244602374
5.6447459612126	0.98744015255349
5.6373158706281	0.98744786042428
5.6299053145540	0.98745556840176
5.6225142160540	0.98746327525797
5.6151424985952	0.98747097977137
5.6077900860456	0.98747868072704
5.6004569026714	0.98748637691676
5.5931428731343	0.98749406713908
5.5858479224893	0.98750175019951
5.5785719761816	0.98750942491058
5.5713149600446	0.98751709009196
5.5640768002970	0.98752474457058
5.5568574235403	0.98753238718071
5.5496567567568	0.98754001676411
5.5424747273063	0.98754763217010
5.5353112629247	0.98755523225568
5.5281662917204	0.98756281588563
5.5210397421731	0.98757038193260
5.5139315431304	0.98757792927726
5.5068416238060	0.98758545680833
5.4997699137773	0.98759296342273
5.4927163429828	0.98760044802566
5.4856808417200	0.98760790953071
5.4786633406433	0.98761534685993
5.4716637707611	0.98762275894396
5.4646820634342	0.98763014472209
5.4577181503732	0.98763750314238
5.4507719636364	0.98764483316174
5.4438434356274	0.98765213374601
5.4369324990932	0.98765940387008
5.4300390871219	0.98766664251794
5.4231631331404	0.98767384868281
5.4163045709124	0.98768102136719
5.4094633345363	0.98768815958294
5.4026393584430	0.98769526235143
5.3958325773938	0.98770232870352
5.3890429264785	0.98770935767975
5.3822703411131	0.98771634833032
5.3755147570378	0.98772329971526
5.3687761103152	0.98773021090443
5.3620543373278	0.98773708097765
5.3553493747767	0.98774390902477
5.3486611596789	0.98775069414571
5.3419896293656	0.98775743545057
5.3353347214807	0.98776413205968
5.3286963739780	0.98777078310371
5.3220745251198	0.98777738772366
5.3154691134752	0.98778394507103
5.3088800779175	0.98779045430782
5.3023073576229	0.98779691460659
5.2957508920685	0.98780332515060
5.2892106210303	0.98780968513377
5.2826864845815	0.98781599376084
5.2761784230905	0.98782225024737
5.2696863772192	0.98782845381981
5.2632102879213	0.98783460371559
5.2567500964405	0.98784069918315
5.2503057443082	0.98784673948199
5.2438771733427	0.98785272388277
5.2374643256464	0.98785865166729
5.2310671436050	0.98786452212864
5.2246855698850	0.98787033457115
5.2183195474326	0.98787608831053
5.2119690194715	0.98788178267386
5.2056339295016	0.98788741699966
5.1993142212973	0.98789299063794
5.1930098389052	0.98789850295025
5.1867207266436	0.98790395330969
5.1804468290997	0.98790934110101
5.1741880911288	0.98791466572062
5.1679444578521	0.98791992657660
5.1617158746556	0.98792512308882
5.1555022871883	0.98793025468890
5.1493036413604	0.98793532082028
5.1431198833419	0.98794032093828
5.1369509595613	0.98794525451008
5.1307968167037	0.98795012101481
5.1246574017094	0.98795491994353
5.1185326617722	0.98795965079930
5.1124225443383	0.98796431309720
5.1063269971044	0.98796890636435
5.1002459680163	0.98797343013994
5.0941794052676	0.98797788397526
5.0881272572980	0.98798226743373
5.0820894727920	0.98798658009089
5.0760660006773	0.98799082153449
5.0700567901235	0.98799499136444
5.0640617905405	0.98799908919286
5.0580809515775	0.98800311464410
5.0521142231210	0.98800706735477
5.0461615552937	0.98801094697372
5.0402228984533	0.98801475316208
5.0342982031906	0.98801848559328
5.0283874203287	0.98802214395303
5.0224905009214	0.98802572793936
5.0166073962517	0.98802923726264
5.0107380578305	0.98803267164552
5.0048824373957	0.98803603082304
4.9990404869101	0.98803931454254
4.9932121585610	0.98804252256373
4.9873974047579	0.98804565465865
4.9815961781323	0.98804871061171
4.9758084315353	0.98805169021966
4.9700341180371	0.98805459329159
4.9642731909256	0.98805741964895
4.9585256037049	0.98806016912554
4.9527913100942	0.98806284156749
4.9470702640264	0.98806543683327
4.9413624196473	0.98806795479366
4.9356677313138	0.98807039533179
4.9299861535932	0.98807275834306
4.9243176412615	0.98807504373522
4.9186621493027	0.98807725142825
4.9130196329072	0.98807938135443
4.9073900474709	0.98808143345831
4.9017733485939	0.98808340769665
4.8961694920790	0.98808530403846
4.8905784339315	0.98808712246495
4.8850001303569	0.98808886296951
4.8794345377604	0.98809052555769
4.8738816127459	0.98809211024719
4.8683413121143	0.98809361706784
4.8628135928629	0.98809504606154
4.8572984121841	0.98809639728228
4.8517957274640	0.98809767079607
4.8463054962819	0.98809886668094
4.8408276764088	0.98809998502692
4.8353622258065	0.98810102593595
