#Parameters = {thARC=0; nARC=1.5; thsub=1; p=1; nSub=3.75}
#"Wavelength / um"	"T (607) [Real Part]"
#---------------------------------------
14.989622900000	0.66482000103940
14.937342202292	0.66484264795957
14.885424925521	0.66486467186756
14.833867293419	0.66488608142457
14.782665581854	0.66490688523444
14.731816117936	0.66492709184341
14.681315279138	0.66494670973997
14.631159492435	0.66496574735460
14.581345233463	0.66498421305962
14.531869025691	0.66500211516899
14.482727439614	0.66501946193818
14.433917091960	0.66503626156395
14.385434644914	0.66505252218424
14.337276805356	0.66506825187800
14.289440324118	0.66508345866505
14.241921995249	0.66509815050598
14.194718655303	0.66511233530197
14.147827182633	0.66512602089474
14.101244496707	0.66513921506639
14.054967557431	0.66515192553933
14.008993364486	0.66516415997618
13.963318956684	0.66517592597966
13.917941411328	0.66518723109258
13.872857843591	0.66519808279768
13.828065405904	0.66520848851764
13.783561287356	0.66521845561499
13.739342713107	0.66522799139207
13.695406943810	0.66523710309100
13.651751275046	0.66524579789360
13.608373036768	0.66525408292143
13.565269592760	0.66526196523573
13.522438340099	0.66526945183739
13.479876708633	0.66527654966699
13.437582160466	0.66528326560478
13.395552189455	0.66528960647065
13.353784320713	0.66529557902421
13.312276110124	0.66530118996475
13.271025143869	0.66530644593131
13.230029037952	0.66531135350268
13.189285437747	0.66531591919745
13.148792017544	0.66532014947407
13.108546480105	0.66532405073086
13.068546556234	0.66532762930613
13.028790004346	0.66533089147817
12.989274610052	0.66533384346538
12.949998185745	0.66533649142630
12.910958570198	0.66533884145974
12.872153628167	0.66534089960479
12.833581250000	0.66534267184100
12.795239351259	0.66534416408841
12.757125872340	0.66534538220768
12.719238778108	0.66534633200020
12.681576057530	0.66534701920819
12.644135723323	0.66534744951485
12.606915811606	0.66534762854441
12.569914381551	0.66534756186235
12.533129515050	0.66534725497549
12.496559316382	0.66534671333213
12.460201911887	0.66534594232217
12.424055449648	0.66534494727731
12.388118099174	0.66534373347117
12.352388051092	0.66534230611946
12.316863516845	0.66534067038012
12.281542728390	0.66533883135354
12.246423937908	0.66533679408264
12.211505417515	0.66533456355318
12.176785458976	0.66533214469378
12.142262373431	0.66532954237626
12.107934491115	0.66532676141572
12.073800161095	0.66532380657077
12.039857751004	0.66532068254374
12.006105646776	0.66531739398086
11.972542252396	0.66531394547249
11.939165989646	0.66531034155329
11.905975297855	0.66530658670248
11.872968633663	0.66530268534402
11.840144470774	0.66529864184683
11.807501299724	0.66529446052506
11.775037627651	0.66529014563827
11.742751978065	0.66528570139166
11.710642890625	0.66528113193634
11.678708920919	0.66527644136955
11.646948640249	0.66527163373488
11.615360635413	0.66526671302256
11.583943508501	0.66526168316966
11.552695876686	0.66525654806038
11.521616372022	0.66525131152626
11.490703641242	0.66524597734649
11.459956345566	0.66524054924813
11.429373160503	0.66523503090639
11.398952775665	0.66522942594488
11.368693894577	0.66522373793590
11.338595234493	0.66521797040070
11.308655526217	0.66521212680973
11.278873513920	0.66520621058297
11.249247954972	0.66520022509016
11.219777619760	0.66519417365110
11.190461291527	0.66518805953593
11.161297766195	0.66518188596542
11.132285852209	0.66517565611125
11.103424370370	0.66516937309632
11.074712153676	0.66516303999501
11.046148047163	0.66515665983349
11.017730907755	0.66515023559004
10.989459604106	0.66514377019531
10.961333016453	0.66513726653264
10.933350036470	0.66513072743835
10.905509567115	0.66512415570209
10.877810522496	0.66511755406707
10.850251827723	0.66511092523042
10.822832418773	0.66510427184349
10.795551242348	0.66509759651217
10.768407255747	0.66509090179717
10.741399426729	0.66508419021437
10.714526733381	0.66507746423510
10.687788163993	0.66507072628650
10.661182716927	0.66506397875181
10.634709400497	0.66505722397069
10.608367232838	0.66505046423955
10.582155241793	0.66504370181187
10.556072464789	0.66503693889851
10.530117948718	0.66503017766807
10.504290749825	0.66502342024716
10.478589933590	0.66501666872080
10.453014574616	0.66500992513267
10.427563756522	0.66500319148550
10.402236571825	0.66499646974134
10.377032121841	0.66498976182197
10.351949516575	0.66498306960916
10.326987874612	0.66497639494501
10.302146323024	0.66496973963235
10.277423997257	0.66496310543498
10.252820041040	0.66495649407806
10.228333606278	0.66494990724843
10.203963852961	0.66494334659495
10.179709949066	0.66493681372884
10.155571070461	0.66493031022400
10.131546400811	0.66492383761734
10.107635131490	0.66491739740915
10.083836461487	0.66491099106341
10.060149597315	0.66490462000814
10.036573752929	0.66489828563572
10.013108149633	0.66489198930327
9.9897520159947	0.66488573233293
9.9665045877660	0.66487951601222
9.9433651077944	0.66487334159442
9.9203328259431	0.66486721029885
9.8974069990096	0.66486112331122
9.8745868906456	0.66485508178401
9.8518717712783	0.66484908683675
9.8292609180328	0.66484313955641
9.8067536146549	0.66483724099768
9.7843491514360	0.66483139218339
9.7620468251384	0.66482559410474
9.7398459389214	0.66481984772175
9.7177458022690	0.66481415396351
9.6957457309185	0.66480851372856
9.6738450467893	0.66480292788523
9.6520430779137	0.66479739727194
9.6303391583681	0.66479192269757
9.6087326282051	0.66478650494179
9.5872228333866	0.66478114475537
9.5658091257179	0.66477584286055
9.5444908627826	0.66477059995135
9.5232674078780	0.66476541669391
9.5021381299525	0.66476029372682
9.4811024035421	0.66475523166146
9.4601596087094	0.66475023108232
9.4393091309824	0.66474529254734
9.4185503612944	0.66474041658823
9.3978826959248	0.66473560371081
9.3773055364404	0.66473085439534
9.3568182896380	0.66472616909682
9.3364203674868	0.66472154824537
9.3161111870727	0.66471699224649
9.2958901705426	0.66471250148145
9.2757567450495	0.66470807630756
9.2557103426984	0.66470371705852
9.2357504004929	0.66469942404474
9.2158763602828	0.66469519755368
9.1960876687117	0.66469103785011
9.1763837771656	0.66468694517651
9.1567641417227	0.66468291975332
9.1372282231027	0.66467896177929
9.1177754866180	0.66467507143180
9.0984054021244	0.66467124886716
9.0791174439733	0.66466749422091
9.0599110909640	0.66466380760818
9.0407858262967	0.66466018912397
9.0217411375263	0.66465663884343
9.0027765165165	0.66465315682224
8.9838914593947	0.66464974309685
8.9650854665072	0.66464639768484
8.9463580423754	0.66464312058517
8.9277086956522	0.66463991177854
8.9091369390788	0.66463677122765
8.8906422894425	0.66463369887752
8.8722242675348	0.66463069465579
8.8538823981099	0.66462775847301
8.8356162098438	0.66462489022293
8.8174252352941	0.66462208978282
8.7993090108600	0.66461935701375
8.7812670767428	0.66461669176087
8.7632989769073	0.66461409385371
8.7454042590432	0.66461156310648
8.7275824745269	0.66460909931835
8.7098331783847	0.66460670227372
8.6921559292549	0.66460437174253
8.6745502893519	0.66460210748053
8.6570158244297	0.66459990922955
8.6395521037464	0.66459777671782
8.6221587000288	0.66459570966019
8.6048351894374	0.66459370775845
8.5875811515325	0.66459177070159
8.5703961692396	0.66458989816608
8.5532798288160	0.66458808981612
8.5362317198178	0.66458634530393
8.5192514350668	0.66458466427001
8.5023385706183	0.66458304634342
8.4854927257288	0.66458149114202
8.4687135028249	0.66457999827274
8.4520005074711	0.66457856733187
8.4353533483399	0.66457719790526
8.4187716371806	0.66457588956863
8.4022549887892	0.66457464188781
8.3858030209790	0.66457345441897
8.3694153545505	0.66457232670892
8.3530916132627	0.66457125829530
8.3368314238042	0.66457024870688
8.3206344157646	0.66456929746377
8.3045002216066	0.66456840407769
8.2884284766381	0.66456756805220
8.2724188189845	0.66456678888292
8.2564708895621	0.66456606605781
8.2405843320506	0.66456539905738
8.2247587928669	0.66456478735493
8.2089939211391	0.66456423041678
8.1932893686800	0.66456372770250
8.1776447899618	0.66456327866514
8.1620598420909	0.66456288275146
8.1465341847826	0.66456253940215
8.1310674803363	0.66456224805207
8.1156593936113	0.66456200813042
8.1003095920022	0.66456181906103
8.0850177454153	0.66456168026252
8.0697835262450	0.66456159114854
8.0546066093498	0.66456155112796
8.0394866720300	0.66456155960513
8.0244233940043	0.66456161598004
8.0094164573871	0.66456171964853
7.9944655466667	0.66456187000252
7.9795703486825	0.66456206643019
7.9647305526036	0.66456230831621
7.9499458499072	0.66456259504189
7.9352159343568	0.66456292598542
7.9205405019815	0.66456330052204
7.9059192510549	0.66456371802423
7.8913518820742	0.66456417786195
7.8768380977404	0.66456467940272
7.8623776029373	0.66456522201193
7.8479701047120	0.66456580505294
7.8336153122550	0.66456642788730
7.8193129368805	0.66456708987490
7.8050626920073	0.66456779037417
7.7908642931393	0.66456852874227
7.7767174578470	0.66456930433521
7.7626219057483	0.66457011650807
7.7485773584906	0.66457096461515
7.7345835397317	0.66457184801016
7.7206401751223	0.66457276604631
7.7067469922879	0.66457371807660
7.6929037208109	0.66457470345383
7.6791100922131	0.66457572153090
7.6653658399386	0.66457677166087
7.6516706993364	0.66457785319714
7.6380244076433	0.66457896549363
7.6244267039674	0.66458010790489
7.6108773292714	0.66458127978628
7.5973760263558	0.66458248049408
7.5839225398432	0.66458370938568
7.5705166161616	0.66458496581968
7.5571580035291	0.66458624915606
7.5438464519376	0.66458755875628
7.5305817131374	0.66458889398347
7.5173635406219	0.66459025420250
7.5041916896120	0.66459163878017
7.4910659170415	0.66459304708530
7.4779859815415	0.66459447848886
7.4649516434263	0.66459593236412
7.4519626646781	0.66459740808676
7.4390188089330	0.66459890503495
7.4261198414664	0.66460042258956
7.4132655291790	0.66460196013417
7.4004556405826	0.66460351705528
7.3876899457861	0.66460509274236
7.3749682164822	0.66460668658797
7.3622902259332	0.66460829798789
7.3496557489581	0.66460992634122
7.3370645619187	0.66461157105047
7.3245164427071	0.66461323152166
7.3120111707317	0.66461490716446
7.2995485269053	0.66461659739223
7.2871282936315	0.66461830162216
7.2747502547925	0.66462001927534
7.2624141957364	0.66462174977688
7.2501199032648	0.66462349255596
7.2378671656205	0.66462524704596
7.2256557724753	0.66462701268450
7.2134855149182	0.66462878891358
7.2013561854432	0.66463057517961
7.1892675779376	0.66463237093352
7.1772194876706	0.66463417563084
7.1652117112811	0.66463598873176
7.1532440467669	0.66463780970120
7.1413162934731	0.66463963800891
7.1294282520809	0.66464147312953
7.1175797245964	0.66464331454264
7.1057705143399	0.66464516173285
7.0940004259347	0.66464701418983
7.0822692652965	0.66464887140845
7.0705768396226	0.66465073288874
7.0589229573817	0.66465259813602
7.0473074283028	0.66465446666094
7.0357300633654	0.66465633797953
7.0241906747891	0.66465821161324
7.0126890760234	0.66466008708902
7.0012250817375	0.66466196393936
6.9897985078107	0.66466384170234
6.9784091713222	0.66466571992166
6.9670568905415	0.66466759814669
6.9557414849188	0.66466947593255
6.9444627750753	0.66467135284009
6.9332205827937	0.66467322843598
6.9220147310090	0.66467510229271
6.9108450437990	0.66467697398867
6.8997113463751	0.66467884310813
6.8886134650735	0.66468070924132
6.8775512273457	0.66468257198443
6.8665244617499	0.66468443093965
6.8555329979419	0.66468628571522
6.8445766666667	0.66468813592540
6.8336552997493	0.66468998119055
6.8227687300865	0.66469182113713
6.8119167916383	0.66469365539770
6.8010993194192	0.66469548361099
6.7903161494904	0.66469730542186
6.7795671189507	0.66469912048136
6.7688520659291	0.66470092844673
6.7581708295762	0.66470272898140
6.7475232500563	0.66470452175502
6.7369091685393	0.66470630644346
6.7263284271932	0.66470808272883
6.7157808691756	0.66470985029945
6.7052663386267	0.66471160884991
6.6947846806610	0.66471335808104
6.6843357413601	0.66471509769991
6.6739193677649	0.66471682741984
6.6635354078684	0.66471854696042
6.6531837106081	0.66472025604746
6.6428641258586	0.66472195441302
6.6325765044248	0.66472364179542
6.6223206980340	0.66472531793917
6.6120965593295	0.66472698259505
6.6019039418630	0.66472863552003
6.5917427000879	0.66473027647730
6.5816126893524	0.66473190523622
6.5715137658922	0.66473352157236
6.5614457868243	0.66473512526743
6.5514086101399	0.66473671610932
6.5414020946978	0.66473829389204
6.5314261002179	0.66473985841570
6.5214804872743	0.66474140948655
6.5115651172893	0.66474294691687
6.5016798525266	0.66474447052502
6.4918245560849	0.66474598013540
6.4819990918919	0.66474747557840
6.4722033246978	0.66474895669039
6.4624371200690	0.66475042331373
6.4527003443823	0.66475187529667
6.4429928648184	0.66475331249338
6.4333145493562	0.66475473476390
6.4236652667667	0.66475614197411
6.4140448866068	0.66475753399569
6.4044532792138	0.66475891070612
6.3948903156997	0.66476027198858
6.3853558679446	0.66476161773200
6.3758498085921	0.66476294783095
6.3663720110427	0.66476426218564
6.3569223494487	0.66476556070190
6.3475006987084	0.66476684329109
6.3381069344609	0.66476810987008
6.3287409330800	0.66476936036125
6.3194025716695	0.66477059469239
6.3100917280572	0.66477181279668
6.3008082807902	0.66477301461266
6.2915521091291	0.66477420008418
6.2823230930427	0.66477536916033
6.2731211132036	0.66477652179543
6.2639460509820	0.66477765794896
6.2547977884415	0.66477877758552
6.2456762083333	0.66477988067477
6.2365811940919	0.66478096719142
6.2275126298297	0.66478203711512
6.2184704003319	0.66478309043046
6.2094543910522	0.66478412712689
6.2004644881075	0.66478514719869
6.1915005782734	0.66478615064491
6.1825625489792	0.66478713746928
6.1736502883031	0.66478810768021
6.1647636849681	0.66478906129073
6.1559026283368	0.66478999831839
6.1470670084068	0.66479091878525
6.1382567158067	0.66479182271779
6.1294716417910	0.66479271014688
6.1207116782360	0.66479358110772
6.1119767176351	0.66479443563976
6.1032666530945	0.66479527378666
6.0945813783289	0.66479609559622
6.0859207876573	0.66479690112034
6.0772847759984	0.66479769041493
6.0686732388664	0.66479846353989
6.0600860723671	0.66479922055900
6.0515231731934	0.66479996153989
6.0429844386212	0.66480068655398
6.0344697665056	0.66480139567641
6.0259790552764	0.66480208898598
6.0175122039342	0.66480276656506
6.0090691120465	0.66480342849958
6.0006496797438	0.66480407487894
5.9922538077154	0.66480470579591
5.9838813972056	0.66480532134665
5.9755323500100	0.66480592163054
5.9672065684713	0.66480650675022
5.9589039554760	0.66480707681145
5.9506244144502	0.66480763192308
5.9423678493558	0.66480817219697
5.9341341646873	0.66480869774794
5.9259232654675	0.66480920869368
5.9177350572444	0.66480970515472
5.9095694460871	0.66481018725432
5.9014263385827	0.66481065511844
5.8933056418321	0.66481110887566
5.8852072634472	0.66481154865711
5.8771311115468	0.66481197459640
5.8690770947533	0.66481238682959
5.8610451221896	0.66481278549505
5.8530351034752	0.66481317073348
5.8450469487229	0.66481354268778
5.8370805685358	0.66481390150301
5.8291358740035	0.66481424732630
5.8212127766990	0.66481458030683
5.8133111886756	0.66481490059571
5.8054310224632	0.66481520834595
5.7975721910656	0.66481550371239
5.7897346079567	0.66481578685159
5.7819181870781	0.66481605792184
5.7741228428351	0.66481631708303
5.7663484900942	0.66481656449659
5.7585950441798	0.66481680032548
5.7508624208709	0.66481702473404
5.7431505363985	0.66481723788801
5.7354593074421	0.66481743995437
5.7277886511272	0.66481763110139
5.7201384850219	0.66481781149844
5.7125087271341	0.66481798131602
5.7048992959087	0.66481814072566
5.6973101102242	0.66481828989985
5.6897410893908	0.66481842901198
5.6821921531463	0.66481855823628
5.6746632216544	0.66481867774777
5.6671542155009	0.66481878772214
5.6596650556919	0.66481888833578
5.6521956636501	0.66481897976563
5.6447459612126	0.66481906218915
5.6373158706281	0.66481913578428
5.6299053145540	0.66481920072934
5.6225142160540	0.66481925720301
5.6151424985952	0.66481930538421
5.6077900860456	0.66481934545210
5.6004569026714	0.66481937758599
5.5931428731343	0.66481940196528
5.5858479224893	0.66481941876939
5.5785719761816	0.66481942817773
5.5713149600446	0.66481943036964
5.5640768002970	0.66481942552429
5.5568574235403	0.66481941382066
5.5496567567568	0.66481939543747
5.5424747273063	0.66481937055313
5.5353112629247	0.66481933934569
5.5281662917204	0.66481930199274
5.5210397421731	0.66481925867142
5.5139315431304	0.66481920955832
5.5068416238060	0.66481915482943
5.4997699137773	0.66481909466011
5.4927163429828	0.66481902922502
5.4856808417200	0.66481895869805
5.4786633406433	0.66481888325231
5.4716637707611	0.66481880306004
5.4646820634342	0.66481871829257
5.4577181503732	0.66481862912030
5.4507719636364	0.66481853571258
5.4438434356274	0.66481843823776
5.4369324990932	0.66481833686303
5.4300390871219	0.66481823175446
5.4231631331404	0.66481812307692
5.4163045709124	0.66481801099403
5.4094633345363	0.66481789566812
5.4026393584430	0.66481777726016
5.3958325773938	0.66481765592979
5.3890429264785	0.66481753183517
5.3822703411131	0.66481740513302
5.3755147570378	0.66481727597855
5.3687761103152	0.66481714452540
5.3620543373278	0.66481701092563
5.3553493747767	0.66481687532967
5.3486611596789	0.66481673788626
5.3419896293656	0.66481659874243
5.3353347214807	0.66481645804346
5.3286963739780	0.66481631593285
5.3220745251198	0.66481617255226
5.3154691134752	0.66481602804151
5.3088800779175	0.66481588253848
5.3023073576229	0.66481573617917
5.2957508920685	0.66481558909758
5.2892106210303	0.66481544142573
5.2826864845815	0.66481529329359
5.2761784230905	0.66481514482908
5.2696863772192	0.66481499615804
5.2632102879213	0.66481484740416
5.2567500964405	0.66481469868900
5.2503057443082	0.66481455013194
5.2438771733427	0.66481440185013
5.2374643256464	0.66481425395852
5.2310671436050	0.66481410656977
5.2246855698850	0.66481395979429
5.2183195474326	0.66481381374014
5.2119690194715	0.66481366851308
5.2056339295016	0.66481352421651
5.1993142212973	0.66481338095144
5.1930098389052	0.66481323881649
5.1867207266436	0.66481309790788
5.1804468290997	0.66481295831937
5.1741880911288	0.66481282014228
5.1679444578521	0.66481268346546
5.1617158746556	0.66481254837525
5.1555022871883	0.66481241495552
5.1493036413604	0.66481228328759
5.1431198833419	0.66481215345027
5.1369509595613	0.66481202551981
5.1307968167037	0.66481189956991
5.1246574017094	0.66481177567169
5.1185326617722	0.66481165389369
5.1124225443383	0.66481153430187
5.1063269971044	0.66481141695958
5.1002459680163	0.66481130192757
5.0941794052676	0.66481118926396
5.0881272572980	0.66481107902428
5.0820894727920	0.66481097126139
5.0760660006773	0.66481086602555
5.0700567901235	0.66481076336438
5.0640617905405	0.66481066332285
5.0580809515775	0.66481056594329
5.0521142231210	0.66481047126541
5.0461615552937	0.66481037932624
5.0402228984533	0.66481029016021
5.0342982031906	0.66481020379907
5.0283874203287	0.66481012027195
5.0224905009214	0.66481003960536
5.0166073962517	0.66480996182314
5.0107380578305	0.66480988694654
5.0048824373957	0.66480981499417
4.9990404869101	0.66480974598202
4.9932121585610	0.66480967992347
4.9873974047579	0.66480961682933
4.9815961781323	0.66480955670778
4.9758084315353	0.66480949956443
4.9700341180371	0.66480944540233
4.9642731909256	0.66480939422196
4.9585256037049	0.66480934602125
4.9527913100942	0.66480930079560
4.9470702640264	0.66480925853787
4.9413624196473	0.66480921923845
4.9356677313138	0.66480918288520
4.9299861535932	0.66480914946352
4.9243176412615	0.66480911895635
4.9186621493027	0.66480909134419
4.9130196329072	0.66480906660511
4.9073900474709	0.66480904471478
4.9017733485939	0.66480902564649
4.8961694920790	0.66480900937116
4.8905784339315	0.66480899585738
4.8850001303569	0.66480898507139
4.8794345377604	0.66480897697716
4.8738816127459	0.66480897153639
4.8683413121143	0.66480896870851
4.8628135928629	0.66480896845074
4.8572984121841	0.66480897071811
4.8517957274640	0.66480897546345
4.8463054962819	0.66480898263748
4.8408276764088	0.66480899218878
4.8353622258065	0.66480900406385
