#Parameters = {thARC=0; nARC=2.25; thsub=1; p=1; nSub=3.75}
#"Wavelength / um"	"T (625) [Real Part]"
#---------------------------------------
14.989622900000	0.66482000103940
14.937342202292	0.66484264795954
14.885424925521	0.66486467186751
14.833867293419	0.66488608142450
14.782665581854	0.66490688523434
14.731816117936	0.66492709184330
14.681315279138	0.66494670973984
14.631159492435	0.66496574735445
14.581345233463	0.66498421305945
14.531869025691	0.66500211516881
14.482727439614	0.66501946193799
14.433917091960	0.66503626156374
14.385434644914	0.66505252218402
14.337276805356	0.66506825187776
14.289440324118	0.66508345866481
14.241921995249	0.66509815050572
14.194718655303	0.66511233530171
14.147827182633	0.66512602089446
14.101244496707	0.66513921506611
14.054967557431	0.66515192553904
14.008993364486	0.66516415997587
13.963318956684	0.66517592597936
13.917941411328	0.66518723109226
13.872857843591	0.66519808279736
13.828065405904	0.66520848851731
13.783561287356	0.66521845561466
13.739342713107	0.66522799139174
13.695406943810	0.66523710309066
13.651751275046	0.66524579789326
13.608373036768	0.66525408292109
13.565269592760	0.66526196523538
13.522438340099	0.66526945183704
13.479876708633	0.66527654966664
13.437582160466	0.66528326560442
13.395552189455	0.66528960647030
13.353784320713	0.66529557902386
13.312276110124	0.66530118996440
13.271025143869	0.66530644593096
13.230029037952	0.66531135350233
13.189285437747	0.66531591919711
13.148792017544	0.66532014947372
13.108546480105	0.66532405073052
13.068546556234	0.66532762930578
13.028790004346	0.66533089147783
12.989274610052	0.66533384346504
12.949998185745	0.66533649142597
12.910958570198	0.66533884145940
12.872153628167	0.66534089960446
12.833581250000	0.66534267184067
12.795239351259	0.66534416408809
12.757125872340	0.66534538220736
12.719238778108	0.66534633199989
12.681576057530	0.66534701920789
12.644135723323	0.66534744951454
12.606915811606	0.66534762854410
12.569914381551	0.66534756186206
12.533129515050	0.66534725497520
12.496559316382	0.66534671333184
12.460201911887	0.66534594232189
12.424055449648	0.66534494727703
12.388118099174	0.66534373347090
12.352388051092	0.66534230611919
12.316863516845	0.66534067037986
12.281542728390	0.66533883135328
12.246423937908	0.66533679408239
12.211505417515	0.66533456355293
12.176785458976	0.66533214469354
12.142262373431	0.66532954237603
12.107934491115	0.66532676141549
12.073800161095	0.66532380657054
12.039857751004	0.66532068254352
12.006105646776	0.66531739398065
11.972542252396	0.66531394547228
11.939165989646	0.66531034155309
11.905975297855	0.66530658670228
11.872968633663	0.66530268534382
11.840144470774	0.66529864184664
11.807501299724	0.66529446052488
11.775037627651	0.66529014563809
11.742751978065	0.66528570139148
11.710642890625	0.66528113193617
11.678708920919	0.66527644136938
11.646948640249	0.66527163373472
11.615360635413	0.66526671302241
11.583943508501	0.66526168316951
11.552695876686	0.66525654806023
11.521616372022	0.66525131152612
11.490703641242	0.66524597734635
11.459956345566	0.66524054924800
11.429373160503	0.66523503090626
11.398952775665	0.66522942594475
11.368693894577	0.66522373793578
11.338595234493	0.66521797040057
11.308655526217	0.66521212680961
11.278873513920	0.66520621058286
11.249247954972	0.66520022509005
11.219777619760	0.66519417365099
11.190461291527	0.66518805953582
11.161297766195	0.66518188596532
11.132285852209	0.66517565611115
11.103424370370	0.66516937309622
11.074712153676	0.66516303999491
11.046148047163	0.66515665983340
11.017730907755	0.66515023558995
10.989459604106	0.66514377019522
10.961333016453	0.66513726653254
10.933350036470	0.66513072743827
10.905509567115	0.66512415570200
10.877810522496	0.66511755406698
10.850251827723	0.66511092523033
10.822832418773	0.66510427184341
10.795551242348	0.66509759651209
10.768407255747	0.66509090179708
10.741399426729	0.66508419021428
10.714526733381	0.66507746423501
10.687788163993	0.66507072628641
10.661182716927	0.66506397875172
10.634709400497	0.66505722397060
10.608367232838	0.66505046423946
10.582155241793	0.66504370181178
10.556072464789	0.66503693889842
10.530117948718	0.66503017766797
10.504290749825	0.66502342024707
10.478589933590	0.66501666872071
10.453014574616	0.66500992513257
10.427563756522	0.66500319148540
10.402236571825	0.66499646974124
10.377032121841	0.66498976182187
10.351949516575	0.66498306960905
10.326987874612	0.66497639494490
10.302146323024	0.66496973963224
10.277423997257	0.66496310543486
10.252820041040	0.66495649407794
10.228333606278	0.66494990724831
10.203963852961	0.66494334659483
10.179709949066	0.66493681372871
10.155571070461	0.66493031022386
10.131546400811	0.66492383761720
10.107635131490	0.66491739740900
10.083836461487	0.66491099106326
10.060149597315	0.66490462000798
10.036573752929	0.66489828563557
10.013108149633	0.66489198930311
9.9897520159947	0.66488573233276
9.9665045877660	0.66487951601205
9.9433651077944	0.66487334159424
9.9203328259431	0.66486721029866
9.8974069990096	0.66486112331103
9.8745868906456	0.66485508178381
9.8518717712783	0.66484908683655
9.8292609180328	0.66484313955620
9.8067536146549	0.66483724099747
9.7843491514360	0.66483139218316
9.7620468251384	0.66482559410451
9.7398459389214	0.66481984772151
9.7177458022690	0.66481415396327
9.6957457309185	0.66480851372831
9.6738450467893	0.66480292788497
9.6520430779137	0.66479739727168
9.6303391583681	0.66479192269730
9.6087326282051	0.66478650494151
9.5872228333866	0.66478114475508
9.5658091257179	0.66477584286025
9.5444908627826	0.66477059995104
9.5232674078780	0.66476541669360
9.5021381299525	0.66476029372650
9.4811024035421	0.66475523166113
9.4601596087094	0.66475023108198
9.4393091309824	0.66474529254699
9.4185503612944	0.66474041658787
9.3978826959248	0.66473560371045
9.3773055364404	0.66473085439497
9.3568182896380	0.66472616909644
9.3364203674868	0.66472154824498
9.3161111870727	0.66471699224610
9.2958901705426	0.66471250148104
9.2757567450495	0.66470807630714
9.2557103426984	0.66470371705809
9.2357504004929	0.66469942404431
9.2158763602828	0.66469519755323
9.1960876687117	0.66469103784966
9.1763837771656	0.66468694517605
9.1567641417227	0.66468291975285
9.1372282231027	0.66467896177881
9.1177754866180	0.66467507143131
9.0984054021244	0.66467124886665
9.0791174439733	0.66466749422040
9.0599110909640	0.66466380760766
9.0407858262967	0.66466018912344
9.0217411375263	0.66465663884289
9.0027765165165	0.66465315682169
8.9838914593947	0.66464974309629
8.9650854665072	0.66464639768426
8.9463580423754	0.66464312058459
8.9277086956522	0.66463991177794
8.9091369390788	0.66463677122705
8.8906422894425	0.66463369887691
8.8722242675348	0.66463069465517
8.8538823981099	0.66462775847237
8.8356162098438	0.66462489022229
8.8174252352941	0.66462208978217
8.7993090108600	0.66461935701309
8.7812670767428	0.66461669176020
8.7632989769073	0.66461409385303
8.7454042590432	0.66461156310579
8.7275824745269	0.66460909931765
8.7098331783847	0.66460670227301
8.6921559292549	0.66460437174181
8.6745502893519	0.66460210747979
8.6570158244297	0.66459990922881
8.6395521037464	0.66459777671706
8.6221587000288	0.66459570965943
8.6048351894374	0.66459370775768
8.5875811515325	0.66459177070081
8.5703961692396	0.66458989816529
8.5532798288160	0.66458808981531
8.5362317198178	0.66458634530311
8.5192514350668	0.66458466426918
8.5023385706183	0.66458304634258
8.4854927257288	0.66458149114117
8.4687135028249	0.66457999827189
8.4520005074711	0.66457856733100
8.4353533483399	0.66457719790438
8.4187716371806	0.66457588956774
8.4022549887892	0.66457464188691
8.3858030209790	0.66457345441807
8.3694153545505	0.66457232670801
8.3530916132627	0.66457125829438
8.3368314238042	0.66457024870595
8.3206344157646	0.66456929746283
8.3045002216066	0.66456840407674
8.2884284766381	0.66456756805124
8.2724188189845	0.66456678888195
8.2564708895621	0.66456606605683
8.2405843320506	0.66456539905640
8.2247587928669	0.66456478735394
8.2089939211391	0.66456423041578
8.1932893686800	0.66456372770149
8.1776447899618	0.66456327866412
8.1620598420909	0.66456288275043
8.1465341847826	0.66456253940112
8.1310674803363	0.66456224805103
8.1156593936113	0.66456200812937
8.1003095920022	0.66456181905997
8.0850177454153	0.66456168026145
8.0697835262450	0.66456159114746
8.0546066093498	0.66456155112688
8.0394866720300	0.66456155960404
8.0244233940043	0.66456161597894
8.0094164573871	0.66456171964742
7.9944655466667	0.66456187000141
7.9795703486825	0.66456206642908
7.9647305526036	0.66456230831509
7.9499458499072	0.66456259504076
7.9352159343568	0.66456292598428
7.9205405019815	0.66456330052089
7.9059192510549	0.66456371802308
7.8913518820742	0.66456417786078
7.8768380977404	0.66456467940155
7.8623776029373	0.66456522201076
7.8479701047120	0.66456580505177
7.8336153122550	0.66456642788612
7.8193129368805	0.66456708987371
7.8050626920073	0.66456779037298
7.7908642931393	0.66456852874107
7.7767174578470	0.66456930433400
7.7626219057483	0.66457011650686
7.7485773584906	0.66457096461394
7.7345835397317	0.66457184800893
7.7206401751223	0.66457276604509
7.7067469922879	0.66457371807536
7.6929037208109	0.66457470345260
7.6791100922131	0.66457572152966
7.6653658399386	0.66457677165962
7.6516706993364	0.66457785319589
7.6380244076433	0.66457896549238
7.6244267039674	0.66458010790363
7.6108773292714	0.66458127978501
7.5973760263558	0.66458248049282
7.5839225398432	0.66458370938441
7.5705166161616	0.66458496581841
7.5571580035291	0.66458624915478
7.5438464519376	0.66458755875500
7.5305817131374	0.66458889398219
7.5173635406219	0.66459025420122
7.5041916896120	0.66459163877889
7.4910659170415	0.66459304708401
7.4779859815415	0.66459447848757
7.4649516434263	0.66459593236283
7.4519626646781	0.66459740808546
7.4390188089330	0.66459890503366
7.4261198414664	0.66460042258826
7.4132655291790	0.66460196013287
7.4004556405826	0.66460351705398
7.3876899457861	0.66460509274105
7.3749682164822	0.66460668658666
7.3622902259332	0.66460829798659
7.3496557489581	0.66460992633992
7.3370645619187	0.66461157104916
7.3245164427071	0.66461323152036
7.3120111707317	0.66461490716315
7.2995485269053	0.66461659739092
7.2871282936315	0.66461830162085
7.2747502547925	0.66462001927403
7.2624141957364	0.66462174977558
7.2501199032648	0.66462349255466
7.2378671656205	0.66462524704465
7.2256557724753	0.66462701268320
7.2134855149182	0.66462878891227
7.2013561854432	0.66463057517831
7.1892675779376	0.66463237093222
7.1772194876706	0.66463417562954
7.1652117112811	0.66463598873046
7.1532440467669	0.66463780969990
7.1413162934731	0.66463963800762
7.1294282520809	0.66464147312824
7.1175797245964	0.66464331454135
7.1057705143399	0.66464516173155
7.0940004259347	0.66464701418855
7.0822692652965	0.66464887140716
7.0705768396226	0.66465073288745
7.0589229573817	0.66465259813474
7.0473074283028	0.66465446665966
7.0357300633654	0.66465633797825
7.0241906747891	0.66465821161196
7.0126890760234	0.66466008708775
7.0012250817375	0.66466196393810
6.9897985078107	0.66466384170108
6.9784091713222	0.66466571992039
6.9670568905415	0.66466759814543
6.9557414849188	0.66466947593130
6.9444627750753	0.66467135283884
6.9332205827937	0.66467322843473
6.9220147310090	0.66467510229147
6.9108450437990	0.66467697398743
6.8997113463751	0.66467884310689
6.8886134650735	0.66468070924009
6.8775512273457	0.66468257198320
6.8665244617499	0.66468443093843
6.8555329979419	0.66468628571400
6.8445766666667	0.66468813592419
6.8336552997493	0.66468998118935
6.8227687300865	0.66469182113593
6.8119167916383	0.66469365539651
6.8010993194192	0.66469548360980
6.7903161494904	0.66469730542067
6.7795671189507	0.66469912048018
6.7688520659291	0.66470092844556
6.7581708295762	0.66470272898023
6.7475232500563	0.66470452175386
6.7369091685393	0.66470630644231
6.7263284271932	0.66470808272768
6.7157808691756	0.66470985029830
6.7052663386267	0.66471160884877
6.6947846806610	0.66471335807991
6.6843357413601	0.66471509769878
6.6739193677649	0.66471682741873
6.6635354078684	0.66471854695931
6.6531837106081	0.66472025604635
6.6428641258586	0.66472195441192
6.6325765044248	0.66472364179432
6.6223206980340	0.66472531793809
6.6120965593295	0.66472698259398
6.6019039418630	0.66472863551896
6.5917427000879	0.66473027647623
6.5816126893524	0.66473190523516
6.5715137658922	0.66473352157131
6.5614457868243	0.66473512526639
6.5514086101399	0.66473671610829
6.5414020946978	0.66473829389101
6.5314261002179	0.66473985841469
6.5214804872743	0.66474140948554
6.5115651172893	0.66474294691586
6.5016798525266	0.66474447052403
6.4918245560849	0.66474598013441
6.4819990918919	0.66474747557742
6.4722033246978	0.66474895668942
6.4624371200690	0.66475042331276
6.4527003443823	0.66475187529571
6.4429928648184	0.66475331249243
6.4333145493562	0.66475473476296
6.4236652667667	0.66475614197318
6.4140448866068	0.66475753399477
6.4044532792138	0.66475891070520
6.3948903156997	0.66476027198767
6.3853558679446	0.66476161773110
6.3758498085921	0.66476294783006
6.3663720110427	0.66476426218476
6.3569223494487	0.66476556070103
6.3475006987084	0.66476684329022
6.3381069344609	0.66476810986922
6.3287409330800	0.66476936036040
6.3194025716695	0.66477059469155
6.3100917280572	0.66477181279585
6.3008082807902	0.66477301461184
6.2915521091291	0.66477420008337
6.2823230930427	0.66477536915953
6.2731211132036	0.66477652179463
6.2639460509820	0.66477765794817
6.2547977884415	0.66477877758474
6.2456762083333	0.66477988067400
6.2365811940919	0.66478096719065
6.2275126298297	0.66478203711436
6.2184704003319	0.66478309042971
6.2094543910522	0.66478412712615
6.2004644881075	0.66478514719797
6.1915005782734	0.66478615064419
6.1825625489792	0.66478713746856
6.1736502883031	0.66478810767951
6.1647636849681	0.66478906129004
6.1559026283368	0.66478999831771
6.1470670084068	0.66479091878457
6.1382567158067	0.66479182271712
6.1294716417910	0.66479271014622
6.1207116782360	0.66479358110707
6.1119767176351	0.66479443563912
6.1032666530945	0.66479527378602
6.0945813783289	0.66479609559559
6.0859207876573	0.66479690111972
6.0772847759984	0.66479769041432
6.0686732388664	0.66479846353929
6.0600860723671	0.66479922055840
6.0515231731934	0.66479996153930
6.0429844386212	0.66480068655341
6.0344697665056	0.66480139567585
6.0259790552764	0.66480208898542
6.0175122039342	0.66480276656451
6.0090691120465	0.66480342849904
6.0006496797438	0.66480407487840
5.9922538077154	0.66480470579539
5.9838813972056	0.66480532134613
5.9755323500100	0.66480592163003
5.9672065684713	0.66480650674972
5.9589039554760	0.66480707681096
5.9506244144502	0.66480763192260
5.9423678493558	0.66480817219649
5.9341341646873	0.66480869774747
5.9259232654675	0.66480920869322
5.9177350572444	0.66480970515427
5.9095694460871	0.66481018725387
5.9014263385827	0.66481065511800
5.8933056418321	0.66481110887523
5.8852072634472	0.66481154865668
5.8771311115468	0.66481197459598
5.8690770947533	0.66481238682918
5.8610451221896	0.66481278549465
5.8530351034752	0.66481317073309
5.8450469487229	0.66481354268739
5.8370805685358	0.66481390150263
5.8291358740035	0.66481424732593
5.8212127766990	0.66481458030646
5.8133111886756	0.66481490059535
5.8054310224632	0.66481520834560
5.7975721910656	0.66481550371204
5.7897346079567	0.66481578685125
5.7819181870781	0.66481605792151
5.7741228428351	0.66481631708270
5.7663484900942	0.66481656449627
5.7585950441798	0.66481680032517
5.7508624208709	0.66481702473374
5.7431505363985	0.66481723788771
5.7354593074421	0.66481743995408
5.7277886511272	0.66481763110110
5.7201384850219	0.66481781149815
5.7125087271341	0.66481798131574
5.7048992959087	0.66481814072539
5.6973101102242	0.66481828989959
5.6897410893908	0.66481842901172
5.6821921531463	0.66481855823603
5.6746632216544	0.66481867774752
5.6671542155009	0.66481878772190
5.6596650556919	0.66481888833555
5.6521956636501	0.66481897976540
5.6447459612126	0.66481906218892
5.6373158706281	0.66481913578406
5.6299053145540	0.66481920072913
5.6225142160540	0.66481925720280
5.6151424985952	0.66481930538401
5.6077900860456	0.66481934545191
5.6004569026714	0.66481937758580
5.5931428731343	0.66481940196509
5.5858479224893	0.66481941876920
5.5785719761816	0.66481942817755
5.5713149600446	0.66481943036947
5.5640768002970	0.66481942552412
5.5568574235403	0.66481941382049
5.5496567567568	0.66481939543731
5.5424747273063	0.66481937055297
5.5353112629247	0.66481933934553
5.5281662917204	0.66481930199259
5.5210397421731	0.66481925867127
5.5139315431304	0.66481920955817
5.5068416238060	0.66481915482929
5.4997699137773	0.66481909465998
5.4927163429828	0.66481902922489
5.4856808417200	0.66481895869792
5.4786633406433	0.66481888325219
5.4716637707611	0.66481880305992
5.4646820634342	0.66481871829245
5.4577181503732	0.66481862912018
5.4507719636364	0.66481853571247
5.4438434356274	0.66481843823765
5.4369324990932	0.66481833686292
5.4300390871219	0.66481823175436
5.4231631331404	0.66481812307682
5.4163045709124	0.66481801099393
5.4094633345363	0.66481789566802
5.4026393584430	0.66481777726007
5.3958325773938	0.66481765592970
5.3890429264785	0.66481753183508
5.3822703411131	0.66481740513293
5.3755147570378	0.66481727597846
5.3687761103152	0.66481714452532
5.3620543373278	0.66481701092555
5.3553493747767	0.66481687532959
5.3486611596789	0.66481673788618
5.3419896293656	0.66481659874235
5.3353347214807	0.66481645804339
5.3286963739780	0.66481631593278
5.3220745251198	0.66481617255219
5.3154691134752	0.66481602804144
5.3088800779175	0.66481588253842
5.3023073576229	0.66481573617911
5.2957508920685	0.66481558909752
5.2892106210303	0.66481544142567
5.2826864845815	0.66481529329353
5.2761784230905	0.66481514482902
5.2696863772192	0.66481499615798
5.2632102879213	0.66481484740410
5.2567500964405	0.66481469868894
5.2503057443082	0.66481455013188
5.2438771733427	0.66481440185007
5.2374643256464	0.66481425395846
5.2310671436050	0.66481410656972
5.2246855698850	0.66481395979423
5.2183195474326	0.66481381374009
5.2119690194715	0.66481366851303
5.2056339295016	0.66481352421645
5.1993142212973	0.66481338095138
5.1930098389052	0.66481323881644
5.1867207266436	0.66481309790782
5.1804468290997	0.66481295831932
5.1741880911288	0.66481282014223
5.1679444578521	0.66481268346540
5.1617158746556	0.66481254837520
5.1555022871883	0.66481241495547
5.1493036413604	0.66481228328754
5.1431198833419	0.66481215345022
5.1369509595613	0.66481202551976
5.1307968167037	0.66481189956986
5.1246574017094	0.66481177567163
5.1185326617722	0.66481165389363
5.1124225443383	0.66481153430181
5.1063269971044	0.66481141695952
5.1002459680163	0.66481130192751
5.0941794052676	0.66481118926390
5.0881272572980	0.66481107902422
5.0820894727920	0.66481097126133
5.0760660006773	0.66481086602549
5.0700567901235	0.66481076336432
5.0640617905405	0.66481066332279
5.0580809515775	0.66481056594323
5.0521142231210	0.66481047126534
5.0461615552937	0.66481037932618
5.0402228984533	0.66481029016014
5.0342982031906	0.66481020379900
5.0283874203287	0.66481012027188
5.0224905009214	0.66481003960529
5.0166073962517	0.66480996182307
5.0107380578305	0.66480988694647
5.0048824373957	0.66480981499409
4.9990404869101	0.66480974598194
4.9932121585610	0.66480967992340
4.9873974047579	0.66480961682925
4.9815961781323	0.66480955670770
4.9758084315353	0.66480949956435
4.9700341180371	0.66480944540225
4.9642731909256	0.66480939422188
4.9585256037049	0.66480934602117
4.9527913100942	0.66480930079551
4.9470702640264	0.66480925853779
4.9413624196473	0.66480921923836
4.9356677313138	0.66480918288511
4.9299861535932	0.66480914946343
4.9243176412615	0.66480911895626
4.9186621493027	0.66480909134410
4.9130196329072	0.66480906660502
4.9073900474709	0.66480904471469
4.9017733485939	0.66480902564640
4.8961694920790	0.66480900937107
4.8905784339315	0.66480899585728
4.8850001303569	0.66480898507129
4.8794345377604	0.66480897697706
4.8738816127459	0.66480897153629
4.8683413121143	0.66480896870841
4.8628135928629	0.66480896845064
4.8572984121841	0.66480897071800
4.8517957274640	0.66480897546334
4.8463054962819	0.66480898263737
4.8408276764088	0.66480899218867
4.8353622258065	0.66480900406374
