#Parameters = {thARC=0; nARC=2.75; thsub=1; p=1; nSub=3.75}
#"Wavelength / um"	"T (637) [Real Part]"
#---------------------------------------
14.989622900000	0.66482000104523
14.937342202292	0.66484264796528
14.885424925521	0.66486467187317
14.833867293419	0.66488608143008
14.782665581854	0.66490688523985
14.731816117936	0.66492709184874
14.681315279138	0.66494670974521
14.631159492435	0.66496574735975
14.581345233463	0.66498421306468
14.531869025691	0.66500211517398
14.482727439614	0.66501946194309
14.433917091960	0.66503626156879
14.385434644914	0.66505252218901
14.337276805356	0.66506825188270
14.289440324118	0.66508345866969
14.241921995249	0.66509815051055
14.194718655303	0.66511233530649
14.147827182633	0.66512602089920
14.101244496707	0.66513921507080
14.054967557431	0.66515192554369
14.008993364486	0.66516415998049
13.963318956684	0.66517592598394
13.917941411328	0.66518723109681
13.872857843591	0.66519808280187
13.828065405904	0.66520848852180
13.783561287356	0.66521845561911
13.739342713107	0.66522799139616
13.695406943810	0.66523710309506
13.651751275046	0.66524579789764
13.608373036768	0.66525408292544
13.565269592760	0.66526196523972
13.522438340099	0.66526945184136
13.479876708633	0.66527654967095
13.437582160466	0.66528326560872
13.395552189455	0.66528960647458
13.353784320713	0.66529557902813
13.312276110124	0.66530118996866
13.271025143869	0.66530644593522
13.230029037952	0.66531135350658
13.189285437747	0.66531591920135
13.148792017544	0.66532014947797
13.108546480105	0.66532405073476
13.068546556234	0.66532762931003
13.028790004346	0.66533089148208
12.989274610052	0.66533384346930
12.949998185745	0.66533649143023
12.910958570198	0.66533884146367
12.872153628167	0.66534089960874
12.833581250000	0.66534267184496
12.795239351259	0.66534416409239
12.757125872340	0.66534538221168
12.719238778108	0.66534633200422
12.681576057530	0.66534701921223
12.644135723323	0.66534744951890
12.606915811606	0.66534762854849
12.569914381551	0.66534756186645
12.533129515050	0.66534725497963
12.496559316382	0.66534671333629
12.460201911887	0.66534594232636
12.424055449648	0.66534494728152
12.388118099174	0.66534373347542
12.352388051092	0.66534230612374
12.316863516845	0.66534067038444
12.281542728390	0.66533883135788
12.246423937908	0.66533679408703
12.211505417515	0.66533456355760
12.176785458976	0.66533214469824
12.142262373431	0.66532954238076
12.107934491115	0.66532676142025
12.073800161095	0.66532380657535
12.039857751004	0.66532068254836
12.006105646776	0.66531739398553
11.972542252396	0.66531394547720
11.939165989646	0.66531034155804
11.905975297855	0.66530658670728
11.872968633663	0.66530268534886
11.840144470774	0.66529864185172
11.807501299724	0.66529446053000
11.775037627651	0.66529014564325
11.742751978065	0.66528570139670
11.710642890625	0.66528113194143
11.678708920919	0.66527644137468
11.646948640249	0.66527163374007
11.615360635413	0.66526671302780
11.583943508501	0.66526168317495
11.552695876686	0.66525654806572
11.521616372022	0.66525131153166
11.490703641242	0.66524597735194
11.459956345566	0.66524054925364
11.429373160503	0.66523503091195
11.398952775665	0.66522942595050
11.368693894577	0.66522373794158
11.338595234493	0.66521797040643
11.308655526217	0.66521212681552
11.278873513920	0.66520621058882
11.249247954972	0.66520022509607
11.219777619760	0.66519417365706
11.190461291527	0.66518805954195
11.161297766195	0.66518188597150
11.132285852209	0.66517565611740
11.103424370370	0.66516937310252
11.074712153676	0.66516304000127
11.046148047163	0.66515665983981
11.017730907755	0.66515023559642
10.989459604106	0.66514377020175
10.961333016453	0.66513726653914
10.933350036470	0.66513072744492
10.905509567115	0.66512415570872
10.877810522496	0.66511755407375
10.850251827723	0.66511092523717
10.822832418773	0.66510427185031
10.795551242348	0.66509759651905
10.768407255747	0.66509090180411
10.741399426729	0.66508419022136
10.714526733381	0.66507746424216
10.687788163993	0.66507072629362
10.661182716927	0.66506397875900
10.634709400497	0.66505722397794
10.608367232838	0.66505046424686
10.582155241793	0.66504370181924
10.556072464789	0.66503693890594
10.530117948718	0.66503017767556
10.504290749825	0.66502342025472
10.478589933590	0.66501666872842
10.453014574616	0.66500992514035
10.427563756522	0.66500319149324
10.402236571825	0.66499646974915
10.377032121841	0.66498976182984
10.351949516575	0.66498306961709
10.326987874612	0.66497639495301
10.302146323024	0.66496973964040
10.277423997257	0.66496310544309
10.252820041040	0.66495649408623
10.228333606278	0.66494990725666
10.203963852961	0.66494334660325
10.179709949066	0.66493681373720
10.155571070461	0.66493031023242
10.131546400811	0.66492383762582
10.107635131490	0.66491739741768
10.083836461487	0.66491099107201
10.060149597315	0.66490462001680
10.036573752929	0.66489828564444
10.013108149633	0.66489198931205
9.9897520159947	0.66488573234176
9.9665045877660	0.66487951602112
9.9433651077944	0.66487334160338
9.9203328259431	0.66486721030786
9.8974069990096	0.66486112332029
9.8745868906456	0.66485508179314
9.8518717712783	0.66484908684594
9.8292609180328	0.66484313956565
9.8067536146549	0.66483724100699
9.7843491514360	0.66483139219274
9.7620468251384	0.66482559411416
9.7398459389214	0.66481984773122
9.7177458022690	0.66481415397304
9.6957457309185	0.66480851373815
9.6738450467893	0.66480292789487
9.6520430779137	0.66479739728163
9.6303391583681	0.66479192270732
9.6087326282051	0.66478650495159
9.5872228333866	0.66478114476522
9.5658091257179	0.66477584287046
9.5444908627826	0.66477059996131
9.5232674078780	0.66476541670392
9.5021381299525	0.66476029373689
9.4811024035421	0.66475523167158
9.4601596087094	0.66475023109249
9.4393091309824	0.66474529255756
9.4185503612944	0.66474041659850
9.3978826959248	0.66473560372113
9.3773055364404	0.66473085440571
9.3568182896380	0.66472616910725
9.3364203674868	0.66472154825585
9.3161111870727	0.66471699225702
9.2958901705426	0.66471250149202
9.2757567450495	0.66470807631818
9.2557103426984	0.66470371706918
9.2357504004929	0.66469942405546
9.2158763602828	0.66469519756444
9.1960876687117	0.66469103786092
9.1763837771656	0.66468694518737
9.1567641417227	0.66468291976422
9.1372282231027	0.66467896179024
9.1177754866180	0.66467507144280
9.0984054021244	0.66467124887820
9.0791174439733	0.66466749423199
9.0599110909640	0.66466380761931
9.0407858262967	0.66466018913514
9.0217411375263	0.66465663885465
9.0027765165165	0.66465315683350
8.9838914593947	0.66464974310815
8.9650854665072	0.66464639769618
8.9463580423754	0.66464312059655
8.9277086956522	0.66463991178996
8.9091369390788	0.66463677123912
8.8906422894425	0.66463369888903
8.8722242675348	0.66463069466734
8.8538823981099	0.66462775848460
8.8356162098438	0.66462489023456
8.8174252352941	0.66462208979449
8.7993090108600	0.66461935702546
8.7812670767428	0.66461669177261
8.7632989769073	0.66461409386550
8.7454042590432	0.66461156311830
8.7275824745269	0.66460909933021
8.7098331783847	0.66460670228561
8.6921559292549	0.66460437175446
8.6745502893519	0.66460210749249
8.6570158244297	0.66459990924156
8.6395521037464	0.66459777672986
8.6221587000288	0.66459570967226
8.6048351894374	0.66459370777056
8.5875811515325	0.66459177071373
8.5703961692396	0.66458989817825
8.5532798288160	0.66458808982832
8.5362317198178	0.66458634531616
8.5192514350668	0.66458466428228
8.5023385706183	0.66458304635572
8.4854927257288	0.66458149115435
8.4687135028249	0.66457999828511
8.4520005074711	0.66457856734426
8.4353533483399	0.66457719791769
8.4187716371806	0.66457588958109
8.4022549887892	0.66457464190030
8.3858030209790	0.66457345443149
8.3694153545505	0.66457232672147
8.3530916132627	0.66457125830788
8.3368314238042	0.66457024871949
8.3206344157646	0.66456929747641
8.3045002216066	0.66456840409036
8.2884284766381	0.66456756806488
8.2724188189845	0.66456678889563
8.2564708895621	0.66456606607055
8.2405843320506	0.66456539907015
8.2247587928669	0.66456478736773
8.2089939211391	0.66456423042960
8.1932893686800	0.66456372771534
8.1776447899618	0.66456327867801
8.1620598420909	0.66456288276436
8.1465341847826	0.66456253941508
8.1310674803363	0.66456224806502
8.1156593936113	0.66456200814340
8.1003095920022	0.66456181907403
8.0850177454153	0.66456168027554
8.0697835262450	0.66456159116158
8.0546066093498	0.66456155114103
8.0394866720300	0.66456155961822
8.0244233940043	0.66456161599315
8.0094164573871	0.66456171966166
7.9944655466667	0.66456187001567
7.9795703486825	0.66456206644337
7.9647305526036	0.66456230832941
7.9499458499072	0.66456259505511
7.9352159343568	0.66456292599866
7.9205405019815	0.66456330053529
7.9059192510549	0.66456371803751
7.8913518820742	0.66456417787524
7.8768380977404	0.66456467941604
7.8623776029373	0.66456522202527
7.8479701047120	0.66456580506630
7.8336153122550	0.66456642790067
7.8193129368805	0.66456708988829
7.8050626920073	0.66456779038758
7.7908642931393	0.66456852875569
7.7767174578470	0.66456930434865
7.7626219057483	0.66457011652153
7.7485773584906	0.66457096462863
7.7345835397317	0.66457184802365
7.7206401751223	0.66457276605983
7.7067469922879	0.66457371809012
7.6929037208109	0.66457470346738
7.6791100922131	0.66457572154446
7.6653658399386	0.66457677167445
7.6516706993364	0.66457785321074
7.6380244076433	0.66457896550724
7.6244267039674	0.66458010791852
7.6108773292714	0.66458127979992
7.5973760263558	0.66458248050774
7.5839225398432	0.66458370939935
7.5705166161616	0.66458496583337
7.5571580035291	0.66458624916976
7.5438464519376	0.66458755877000
7.5305817131374	0.66458889399720
7.5173635406219	0.66459025421624
7.5041916896120	0.66459163879393
7.4910659170415	0.66459304709907
7.4779859815415	0.66459447850265
7.4649516434263	0.66459593237792
7.4519626646781	0.66459740810057
7.4390188089330	0.66459890504877
7.4261198414664	0.66460042260339
7.4132655291790	0.66460196014802
7.4004556405826	0.66460351706914
7.3876899457861	0.66460509275623
7.3749682164822	0.66460668660185
7.3622902259332	0.66460829800179
7.3496557489581	0.66460992635513
7.3370645619187	0.66461157106439
7.3245164427071	0.66461323153559
7.3120111707317	0.66461490717840
7.2995485269053	0.66461659740618
7.2871282936315	0.66461830163612
7.2747502547925	0.66462001928932
7.2624141957364	0.66462174979087
7.2501199032648	0.66462349256996
7.2378671656205	0.66462524705997
7.2256557724753	0.66462701269853
7.2134855149182	0.66462878892761
7.2013561854432	0.66463057519366
7.1892675779376	0.66463237094758
7.1772194876706	0.66463417564491
7.1652117112811	0.66463598874583
7.1532440467669	0.66463780971529
7.1413162934731	0.66463963802301
7.1294282520809	0.66464147314364
7.1175797245964	0.66464331455676
7.1057705143399	0.66464516174697
7.0940004259347	0.66464701420397
7.0822692652965	0.66464887142260
7.0705768396226	0.66465073290290
7.0589229573817	0.66465259815019
7.0473074283028	0.66465446667512
7.0357300633654	0.66465633799371
7.0241906747891	0.66465821162743
7.0126890760234	0.66466008710323
7.0012250817375	0.66466196395358
6.9897985078107	0.66466384171657
6.9784091713222	0.66466571993589
6.9670568905415	0.66466759816094
6.9557414849188	0.66466947594680
6.9444627750753	0.66467135285435
6.9332205827937	0.66467322845025
6.9220147310090	0.66467510230699
6.9108450437990	0.66467697400296
6.8997113463751	0.66467884312243
6.8886134650735	0.66468070925562
6.8775512273457	0.66468257199874
6.8665244617499	0.66468443095398
6.8555329979419	0.66468628572955
6.8445766666667	0.66468813593975
6.8336552997493	0.66468998120491
6.8227687300865	0.66469182115149
6.8119167916383	0.66469365541207
6.8010993194192	0.66469548362537
6.7903161494904	0.66469730543625
6.7795671189507	0.66469912049576
6.7688520659291	0.66470092846114
6.7581708295762	0.66470272899582
6.7475232500563	0.66470452176945
6.7369091685393	0.66470630645790
6.7263284271932	0.66470808274327
6.7157808691756	0.66470985031390
6.7052663386267	0.66471160886437
6.6947846806610	0.66471335809551
6.6843357413601	0.66471509771439
6.6739193677649	0.66471682743433
6.6635354078684	0.66471854697492
6.6531837106081	0.66472025606196
6.6428641258586	0.66472195442754
6.6325765044248	0.66472364180994
6.6223206980340	0.66472531795371
6.6120965593295	0.66472698260960
6.6019039418630	0.66472863553459
6.5917427000879	0.66473027649186
6.5816126893524	0.66473190525079
6.5715137658922	0.66473352158693
6.5614457868243	0.66473512528202
6.5514086101399	0.66473671612392
6.5414020946978	0.66473829390664
6.5314261002179	0.66473985843032
6.5214804872743	0.66474140950117
6.5115651172893	0.66474294693150
6.5016798525266	0.66474447053967
6.4918245560849	0.66474598015005
6.4819990918919	0.66474747559306
6.4722033246978	0.66474895670507
6.4624371200690	0.66475042332841
6.4527003443823	0.66475187531136
6.4429928648184	0.66475331250808
6.4333145493562	0.66475473477861
6.4236652667667	0.66475614198883
6.4140448866068	0.66475753401042
6.4044532792138	0.66475891072086
6.3948903156997	0.66476027200333
6.3853558679446	0.66476161774676
6.3758498085921	0.66476294784572
6.3663720110427	0.66476426220042
6.3569223494487	0.66476556071669
6.3475006987084	0.66476684330588
6.3381069344609	0.66476810988489
6.3287409330800	0.66476936037607
6.3194025716695	0.66477059470721
6.3100917280572	0.66477181281152
6.3008082807902	0.66477301462751
6.2915521091291	0.66477420009904
6.2823230930427	0.66477536917520
6.2731211132036	0.66477652181031
6.2639460509820	0.66477765796385
6.2547977884415	0.66477877760042
6.2456762083333	0.66477988068968
6.2365811940919	0.66478096720634
6.2275126298297	0.66478203713005
6.2184704003319	0.66478309044540
6.2094543910522	0.66478412714184
6.2004644881075	0.66478514721366
6.1915005782734	0.66478615065988
6.1825625489792	0.66478713748426
6.1736502883031	0.66478810769521
6.1647636849681	0.66478906130574
6.1559026283368	0.66478999833341
6.1470670084068	0.66479091880027
6.1382567158067	0.66479182273282
6.1294716417910	0.66479271016193
6.1207116782360	0.66479358112278
6.1119767176351	0.66479443565483
6.1032666530945	0.66479527380174
6.0945813783289	0.66479609561131
6.0859207876573	0.66479690113544
6.0772847759984	0.66479769043005
6.0686732388664	0.66479846355502
6.0600860723671	0.66479922057413
6.0515231731934	0.66479996155504
6.0429844386212	0.66480068656914
6.0344697665056	0.66480139569158
6.0259790552764	0.66480208900116
6.0175122039342	0.66480276658025
6.0090691120465	0.66480342851479
6.0006496797438	0.66480407489416
5.9922538077154	0.66480470581114
5.9838813972056	0.66480532136189
5.9755323500100	0.66480592164579
5.9672065684713	0.66480650676548
5.9589039554760	0.66480707682673
5.9506244144502	0.66480763193837
5.9423678493558	0.66480817221227
5.9341341646873	0.66480869776325
5.9259232654675	0.66480920870901
5.9177350572444	0.66480970517005
5.9095694460871	0.66481018726967
5.9014263385827	0.66481065513380
5.8933056418321	0.66481110889103
5.8852072634472	0.66481154867249
5.8771311115468	0.66481197461179
5.8690770947533	0.66481238684499
5.8610451221896	0.66481278551047
5.8530351034752	0.66481317074891
5.8450469487229	0.66481354270322
5.8370805685358	0.66481390151846
5.8291358740035	0.66481424734177
5.8212127766990	0.66481458032231
5.8133111886756	0.66481490061120
5.8054310224632	0.66481520836146
5.7975721910656	0.66481550372790
5.7897346079567	0.66481578686712
5.7819181870781	0.66481605793738
5.7741228428351	0.66481631709858
5.7663484900942	0.66481656451216
5.7585950441798	0.66481680034106
5.7508624208709	0.66481702474963
5.7431505363985	0.66481723790361
5.7354593074421	0.66481743996999
5.7277886511272	0.66481763111701
5.7201384850219	0.66481781151408
5.7125087271341	0.66481798133167
5.7048992959087	0.66481814074133
5.6973101102242	0.66481828991553
5.6897410893908	0.66481842902767
5.6821921531463	0.66481855825199
5.6746632216544	0.66481867776348
5.6671542155009	0.66481878773787
5.6596650556919	0.66481888835152
5.6521956636501	0.66481897978138
5.6447459612126	0.66481906220491
5.6373158706281	0.66481913580006
5.6299053145540	0.66481920074514
5.6225142160540	0.66481925721881
5.6151424985952	0.66481930540003
5.6077900860456	0.66481934546793
5.6004569026714	0.66481937760183
5.5931428731343	0.66481940198113
5.5858479224893	0.66481941878525
5.5785719761816	0.66481942819361
5.5713149600446	0.66481943038553
5.5640768002970	0.66481942554019
5.5568574235403	0.66481941383657
5.5496567567568	0.66481939545340
5.5424747273063	0.66481937056908
5.5353112629247	0.66481933936164
5.5281662917204	0.66481930200871
5.5210397421731	0.66481925868740
5.5139315431304	0.66481920957431
5.5068416238060	0.66481915484544
5.4997699137773	0.66481909467613
5.4927163429828	0.66481902924105
5.4856808417200	0.66481895871410
5.4786633406433	0.66481888326837
5.4716637707611	0.66481880307611
5.4646820634342	0.66481871830866
5.4577181503732	0.66481862913639
5.4507719636364	0.66481853572869
5.4438434356274	0.66481843825388
5.4369324990932	0.66481833687916
5.4300390871219	0.66481823177061
5.4231631331404	0.66481812309308
5.4163045709124	0.66481801101020
5.4094633345363	0.66481789568430
5.4026393584430	0.66481777727636
5.3958325773938	0.66481765594600
5.3890429264785	0.66481753185139
5.3822703411131	0.66481740514925
5.3755147570378	0.66481727599479
5.3687761103152	0.66481714454166
5.3620543373278	0.66481701094191
5.3553493747767	0.66481687534595
5.3486611596789	0.66481673790255
5.3419896293656	0.66481659875873
5.3353347214807	0.66481645805978
5.3286963739780	0.66481631594918
5.3220745251198	0.66481617256861
5.3154691134752	0.66481602805787
5.3088800779175	0.66481588255486
5.3023073576229	0.66481573619556
5.2957508920685	0.66481558911398
5.2892106210303	0.66481544144214
5.2826864845815	0.66481529331001
5.2761784230905	0.66481514484552
5.2696863772192	0.66481499617448
5.2632102879213	0.66481484742062
5.2567500964405	0.66481469870547
5.2503057443082	0.66481455014842
5.2438771733427	0.66481440186662
5.2374643256464	0.66481425397502
5.2310671436050	0.66481410658629
5.2246855698850	0.66481395981082
5.2183195474326	0.66481381375668
5.2119690194715	0.66481366852964
5.2056339295016	0.66481352423307
5.1993142212973	0.66481338096801
5.1930098389052	0.66481323883308
5.1867207266436	0.66481309792448
5.1804468290997	0.66481295833598
5.1741880911288	0.66481282015891
5.1679444578521	0.66481268348209
5.1617158746556	0.66481254839190
5.1555022871883	0.66481241497218
5.1493036413604	0.66481228330427
5.1431198833419	0.66481215346696
5.1369509595613	0.66481202553651
5.1307968167037	0.66481189958662
5.1246574017094	0.66481177568841
5.1185326617722	0.66481165391042
5.1124225443383	0.66481153431861
5.1063269971044	0.66481141697633
5.1002459680163	0.66481130194433
5.0941794052676	0.66481118928074
5.0881272572980	0.66481107904106
5.0820894727920	0.66481097127819
5.0760660006773	0.66481086604236
5.0700567901235	0.66481076338120
5.0640617905405	0.66481066333968
5.0580809515775	0.66481056596014
5.0521142231210	0.66481047128226
5.0461615552937	0.66481037934311
5.0402228984533	0.66481029017708
5.0342982031906	0.66481020381595
5.0283874203287	0.66481012028885
5.0224905009214	0.66481003962227
5.0166073962517	0.66480996184006
5.0107380578305	0.66480988696347
5.0048824373957	0.66480981501111
4.9990404869101	0.66480974599897
4.9932121585610	0.66480967994044
4.9873974047579	0.66480961684631
4.9815961781323	0.66480955672477
4.9758084315353	0.66480949958143
4.9700341180371	0.66480944541934
4.9642731909256	0.66480939423898
4.9585256037049	0.66480934603828
4.9527913100942	0.66480930081264
4.9470702640264	0.66480925855493
4.9413624196473	0.66480921925551
4.9356677313138	0.66480918290227
4.9299861535932	0.66480914948060
4.9243176412615	0.66480911897344
4.9186621493027	0.66480909136129
4.9130196329072	0.66480906662222
4.9073900474709	0.66480904473191
4.9017733485939	0.66480902566363
4.8961694920790	0.66480900938831
4.8905784339315	0.66480899587453
4.8850001303569	0.66480898508855
4.8794345377604	0.66480897699434
4.8738816127459	0.66480897155358
4.8683413121143	0.66480896872571
4.8628135928629	0.66480896846795
4.8572984121841	0.66480897073532
4.8517957274640	0.66480897548068
4.8463054962819	0.66480898265472
4.8408276764088	0.66480899220603
4.8353622258065	0.66480900408111
