#Parameters = {thARC=0.2; nARC=2.5; thsub=1; p=1; nSub=3.75}
#"Wavelength / um"	"T (632) [Real Part]"
#---------------------------------------
14.989622900000	0.67329660887117
14.937342202292	0.67338929913781
14.885424925521	0.67348121565584
14.833867293419	0.67357237232975
14.782665581854	0.67366278298367
14.731816117936	0.67375246136054
14.681315279138	0.67384142112144
14.631159492435	0.67392967584486
14.581345233463	0.67401723902601
14.531869025691	0.67410412407616
14.482727439614	0.67419034432196
14.433917091960	0.67427591300485
14.385434644914	0.67436084328041
14.337276805356	0.67444514821776
14.289440324118	0.67452884079897
14.241921995249	0.67461193391855
14.194718655303	0.67469444038284
14.147827182633	0.67477637290949
14.101244496707	0.67485774412700
14.054967557431	0.67493856657416
14.008993364486	0.67501885269960
13.963318956684	0.67509861486135
13.917941411328	0.67517786532635
13.872857843591	0.67525661627007
13.828065405904	0.67533487977606
13.783561287356	0.67541266783558
13.739342713107	0.67548999234722
13.695406943810	0.67556686511653
13.651751275046	0.67564329785566
13.608373036768	0.67571930218308
13.565269592760	0.67579488962323
13.522438340099	0.67587007160620
13.479876708633	0.67594485946751
13.437582160466	0.67601926444778
13.395552189455	0.67609329769253
13.353784320713	0.67616697025192
13.312276110124	0.67624029308052
13.271025143869	0.67631327703711
13.230029037952	0.67638593288451
13.189285437747	0.67645827128938
13.148792017544	0.67653030282207
13.108546480105	0.67660203795645
13.068546556234	0.67667348706982
13.028790004346	0.67674466044275
12.989274610052	0.67681556825899
12.949998185745	0.67688622060538
12.910958570198	0.67695662747179
12.872153628167	0.67702679875099
12.833581250000	0.67709674423870
12.795239351259	0.67716647363348
12.757125872340	0.67723599653670
12.719238778108	0.67730532245260
12.681576057530	0.67737446078820
12.644135723323	0.67744342085339
12.606915811606	0.67751221186092
12.569914381551	0.67758084292643
12.533129515050	0.67764932306854
12.496559316382	0.67771766120888
12.460201911887	0.67778586617218
12.424055449648	0.67785394668633
12.388118099174	0.67792191138255
12.352388051092	0.67798976879540
12.316863516845	0.67805752736300
12.281542728390	0.67812519542710
12.246423937908	0.67819278123322
12.211505417515	0.67826029293087
12.176785458976	0.67832773857364
12.142262373431	0.67839512611944
12.107934491115	0.67846246343062
12.073800161095	0.67852975827423
12.039857751004	0.67859701832220
12.006105646776	0.67866425115155
11.972542252396	0.67873146424464
11.939165989646	0.67879866498939
11.905975297855	0.67886586067953
11.872968633663	0.67893305851486
11.840144470774	0.67900026560151
11.807501299724	0.67906748895222
11.775037627651	0.67913473548664
11.742751978065	0.67920201203158
11.710642890625	0.67926932532136
11.678708920919	0.67933668199808
11.646948640249	0.67940408861199
11.615360635413	0.67947155162174
11.583943508501	0.67953907739479
11.552695876686	0.67960667220773
11.521616372022	0.67967434224660
11.490703641242	0.67974209360730
11.459956345566	0.67980993229592
11.429373160503	0.67987786422912
11.398952775665	0.67994589523454
11.368693894577	0.68001403105115
11.338595234493	0.68008227732966
11.308655526217	0.68015063963295
11.278873513920	0.68021912343644
11.249247954972	0.68028773412854
11.219777619760	0.68035647701103
11.190461291527	0.68042535729955
11.161297766195	0.68049438012399
11.132285852209	0.68056355052896
11.103424370370	0.68063287347420
11.074712153676	0.68070235383509
11.046148047163	0.68077199640306
11.017730907755	0.68084180588610
10.989459604106	0.68091178690918
10.961333016453	0.68098194401479
10.933350036470	0.68105228166337
10.905509567115	0.68112280423381
10.877810522496	0.68119351602398
10.850251827723	0.68126442125117
10.822832418773	0.68133552405263
10.795551242348	0.68140682848607
10.768407255747	0.68147833853018
10.741399426729	0.68155005808513
10.714526733381	0.68162199097309
10.687788163993	0.68169414093878
10.661182716927	0.68176651164997
10.634709400497	0.68183910669805
10.608367232838	0.68191192959851
10.582155241793	0.68198498379156
10.556072464789	0.68205827264259
10.530117948718	0.68213179944279
10.504290749825	0.68220556740966
10.478589933590	0.68227957968759
10.453014574616	0.68235383934837
10.427563756522	0.68242834939185
10.402236571825	0.68250311274640
10.377032121841	0.68257813226953
10.351949516575	0.68265341074847
10.326987874612	0.68272895090071
10.302146323024	0.68280475537462
10.277423997257	0.68288082674996
10.252820041040	0.68295716753855
10.228333606278	0.68303378018479
10.203963852961	0.68311066706627
10.179709949066	0.68318783049433
10.155571070461	0.68326527271472
10.131546400811	0.68334299590810
10.107635131490	0.68342100219072
10.083836461487	0.68349929361495
10.060149597315	0.68357787216992
10.036573752929	0.68365673978209
10.013108149633	0.68373589831589
9.9897520159947	0.68381534957427
9.9665045877660	0.68389509529936
9.9433651077944	0.68397513717302
9.9203328259431	0.68405547681749
9.8974069990096	0.68413611579598
9.8745868906456	0.68421705561328
9.8518717712783	0.68429829771635
9.8292609180328	0.68437984349498
9.8067536146549	0.68446169428234
9.7843491514360	0.68454385135564
9.7620468251384	0.68462631593670
9.7398459389214	0.68470908919262
9.7177458022690	0.68479217223632
9.6957457309185	0.68487556612723
9.6738450467893	0.68495927187182
9.6520430779137	0.68504329042431
9.6303391583681	0.68512762268719
9.6087326282051	0.68521226951191
9.5872228333866	0.68529723169943
9.5658091257179	0.68538251000088
9.5444908627826	0.68546810511817
9.5232674078780	0.68555401770456
9.5021381299525	0.68564024836535
9.4811024035421	0.68572679765840
9.4601596087094	0.68581366609483
9.4393091309824	0.68590085413955
9.4185503612944	0.68598836221194
9.3978826959248	0.68607619068644
9.3773055364404	0.68616433989312
9.3568182896380	0.68625281011835
9.3364203674868	0.68634160160536
9.3161111870727	0.68643071455488
9.2958901705426	0.68652014912571
9.2757567450495	0.68660990543537
9.2557103426984	0.68669998356068
9.2357504004929	0.68679038353833
9.2158763602828	0.68688110536555
9.1960876687117	0.68697214900065
9.1763837771656	0.68706351436366
9.1567641417227	0.68715520133690
9.1372282231027	0.68724720976559
9.1177754866180	0.68733953945842
9.0984054021244	0.68743219018819
9.0791174439733	0.68752516169235
9.0599110909640	0.68761845367362
9.0407858262967	0.68771206580057
9.0217411375263	0.68780599770820
9.0027765165165	0.68790024899853
8.9838914593947	0.68799481924117
8.9650854665072	0.68808970797392
8.9463580423754	0.68818491470334
8.9277086956522	0.68828043890531
8.9091369390788	0.68837628002560
8.8906422894425	0.68847243748049
8.8722242675348	0.68856891065728
8.8538823981099	0.68866569891489
8.8356162098438	0.68876280158441
8.8174252352941	0.68886021796967
8.7993090108600	0.68895794734780
8.7812670767428	0.68905598896976
8.7632989769073	0.68915434206096
8.7454042590432	0.68925300582172
8.7275824745269	0.68935197942791
8.7098331783847	0.68945126203141
8.6921559292549	0.68955085276075
8.6745502893519	0.68965075072154
8.6570158244297	0.68975095499711
8.6395521037464	0.68985146464899
8.6221587000288	0.68995227871745
8.6048351894374	0.69005339622203
8.5875811515325	0.69015481616207
8.5703961692396	0.69025653751724
8.5532798288160	0.69035855924805
8.5362317198178	0.69046088029637
8.5192514350668	0.69056349958594
8.5023385706183	0.69066641602289
8.4854927257288	0.69076962849626
8.4687135028249	0.69087313587845
8.4520005074711	0.69097693702579
8.4353533483399	0.69108103077899
8.4187716371806	0.69118541596367
8.4022549887892	0.69129009139081
8.3858030209790	0.69139505585728
8.3694153545505	0.69150030814630
8.3530916132627	0.69160584702791
8.3368314238042	0.69171167125950
8.3206344157646	0.69181777958621
8.3045002216066	0.69192417074145
8.2884284766381	0.69203084344736
8.2724188189845	0.69213779641527
8.2564708895621	0.69224502834615
8.2405843320506	0.69235253793107
8.2247587928669	0.69246032385166
8.2089939211391	0.69256838478056
8.1932893686800	0.69267671938185
8.1776447899618	0.69278532631149
8.1620598420909	0.69289420421778
8.1465341847826	0.69300335174178
8.1310674803363	0.69311276751772
8.1156593936113	0.69322245017346
8.1003095920022	0.69333239833089
8.0850177454153	0.69344261060636
8.0697835262450	0.69355308561108
8.0546066093498	0.69366382195152
8.0394866720300	0.69377481822985
8.0244233940043	0.69388607304433
8.0094164573871	0.69399758498968
7.9944655466667	0.69410935265750
7.9795703486825	0.69422137463667
7.9647305526036	0.69433364951369
7.9499458499072	0.69444617587312
7.9352159343568	0.69455895229790
7.9205405019815	0.69467197736978
7.9059192510549	0.69478524966963
7.8913518820742	0.69489876777784
7.8768380977404	0.69501253027469
7.8623776029373	0.69512653574068
7.8479701047120	0.69524078275689
7.8336153122550	0.69535526990533
7.8193129368805	0.69546999576928
7.8050626920073	0.69558495893364
7.7908642931393	0.69570015798526
7.7767174578470	0.69581559151327
7.7626219057483	0.69593125810938
7.7485773584906	0.69604715636825
7.7345835397317	0.69616328488779
7.7206401751223	0.69627964226945
7.7067469922879	0.69639622711855
7.6929037208109	0.69651303804459
7.6791100922131	0.69663007366154
7.6653658399386	0.69674733258813
7.6516706993364	0.69686481344815
7.6380244076433	0.69698251487076
7.6244267039674	0.69710043549072
7.6108773292714	0.69721857394871
7.5973760263558	0.69733692889160
7.5839225398432	0.69745549897269
7.5705166161616	0.69757428285204
7.5571580035291	0.69769327919664
7.5438464519376	0.69781248668074
7.5305817131374	0.69793190398608
7.5173635406219	0.69805152980213
7.5041916896120	0.69817136282633
7.4910659170415	0.69829140176435
7.4779859815415	0.69841164533030
7.4649516434263	0.69853209224698
7.4519626646781	0.69865274124611
7.4390188089330	0.69877359106850
7.4261198414664	0.69889464046435
7.4132655291790	0.69901588819338
7.4004556405826	0.69913733302510
7.3876899457861	0.69925897373900
7.3749682164822	0.69938080912469
7.3622902259332	0.69950283798221
7.3496557489581	0.69962505912209
7.3370645619187	0.69974747136566
7.3245164427071	0.69987007354512
7.3120111707317	0.69999286450380
7.2995485269053	0.70011584309630
7.2871282936315	0.70023900818866
7.2747502547925	0.70036235865851
7.2624141957364	0.70048589339527
7.2501199032648	0.70060961130027
7.2378671656205	0.70073351128691
7.2256557724753	0.70085759228081
7.2134855149182	0.70098185321995
7.2013561854432	0.70110629305483
7.1892675779376	0.70123091074856
7.1772194876706	0.70135570527703
7.1652117112811	0.70148067562903
7.1532440467669	0.70160582080633
7.1413162934731	0.70173113982385
7.1294282520809	0.70185663170977
7.1175797245964	0.70198229550559
7.1057705143399	0.70210813026628
7.0940004259347	0.70223413506037
7.0822692652965	0.70236030897004
7.0705768396226	0.70248665109121
7.0589229573817	0.70261316053363
7.0473074283028	0.70273983642099
7.0357300633654	0.70286667789095
7.0241906747891	0.70299368409525
7.0126890760234	0.70312085419979
7.0012250817375	0.70324818738466
6.9897985078107	0.70337568284425
6.9784091713222	0.70350333978726
6.9670568905415	0.70363115743679
6.9557414849188	0.70375913503041
6.9444627750753	0.70388727182013
6.9332205827937	0.70401556707255
6.9220147310090	0.70414402006880
6.9108450437990	0.70427263010466
6.8997113463751	0.70440139649051
6.8886134650735	0.70453031855145
6.8775512273457	0.70465939562725
6.8665244617499	0.70478862707240
6.8555329979419	0.70491801225614
6.8445766666667	0.70504755056243
6.8336552997493	0.70517724139002
6.8227687300865	0.70530708415242
6.8119167916383	0.70543707827789
6.8010993194192	0.70556722320947
6.7903161494904	0.70569751840497
6.7795671189507	0.70582796333693
6.7688520659291	0.70595855749266
6.7581708295762	0.70608930037417
6.7475232500563	0.70622019149820
6.7369091685393	0.70635123039617
6.7263284271932	0.70648241661416
6.7157808691756	0.70661374971287
6.7052663386267	0.70674522926761
6.6947846806610	0.70687685486826
6.6843357413601	0.70700862611920
6.6739193677649	0.70714054263931
6.6635354078684	0.70727260406192
6.6531837106081	0.70740481003472
6.6428641258586	0.70753716021973
6.6325765044248	0.70766965429329
6.6223206980340	0.70780229194593
6.6120965593295	0.70793507288235
6.6019039418630	0.70806799682134
6.5917427000879	0.70820106349573
6.5816126893524	0.70833427265230
6.5715137658922	0.70846762405173
6.5614457868243	0.70860111746848
6.5514086101399	0.70873475269076
6.5414020946978	0.70886852952044
6.5314261002179	0.70900244777292
6.5214804872743	0.70913650727711
6.5115651172893	0.70927070787529
6.5016798525266	0.70940504942301
6.4918245560849	0.70953953178906
6.4819990918919	0.70967415485531
6.4722033246978	0.70980891851660
6.4624371200690	0.70994382268070
6.4527003443823	0.71007886726817
6.4429928648184	0.71021405221221
6.4333145493562	0.71034937745862
6.4236652667667	0.71048484296565
6.4140448866068	0.71062044870388
6.4044532792138	0.71075619465613
6.3948903156997	0.71089208081730
6.3853558679446	0.71102810719427
6.3758498085921	0.71116427380577
6.3663720110427	0.71130058068229
6.3569223494487	0.71143702786586
6.3475006987084	0.71157361541002
6.3381069344609	0.71171034337963
6.3287409330800	0.71184721185073
6.3194025716695	0.71198422091043
6.3100917280572	0.71212137065677
6.3008082807902	0.71225866119855
6.2915521091291	0.71239609265521
6.2823230930427	0.71253366515669
6.2731211132036	0.71267137884326
6.2639460509820	0.71280923386539
6.2547977884415	0.71294723038358
6.2456762083333	0.71308536856825
6.2365811940919	0.71322364859953
6.2275126298297	0.71336207066714
6.2184704003319	0.71350063497025
6.2094543910522	0.71363934171726
6.2004644881075	0.71377819112571
6.1915005782734	0.71391718342206
6.1825625489792	0.71405631884157
6.1736502883031	0.71419559762812
6.1647636849681	0.71433502003405
6.1559026283368	0.71447458631997
6.1470670084068	0.71461429675462
6.1382567158067	0.71475415161471
6.1294716417910	0.71489415118470
6.1207116782360	0.71503429575668
6.1119767176351	0.71517458563018
6.1032666530945	0.71531502111199
6.0945813783289	0.71545560251598
6.0859207876573	0.71559633016296
6.0772847759984	0.71573720438047
6.0686732388664	0.71587822550260
6.0600860723671	0.71601939386983
6.0515231731934	0.71616070982887
6.0429844386212	0.71630217373242
6.0344697665056	0.71644378593907
6.0259790552764	0.71658554681303
6.0175122039342	0.71672745672404
6.0090691120465	0.71686951604711
6.0006496797438	0.71701172516240
5.9922538077154	0.71715408445499
5.9838813972056	0.71729659431471
5.9755323500100	0.71743925513599
5.9672065684713	0.71758206731763
5.9589039554760	0.71772503126264
5.9506244144502	0.71786814737804
5.9423678493558	0.71801141607470
5.9341341646873	0.71815483776712
5.9259232654675	0.71829841287330
5.9177350572444	0.71844214181447
5.9095694460871	0.71858602501500
5.9014263385827	0.71873006290215
5.8933056418321	0.71887425590589
5.8852072634472	0.71901860445876
5.8771311115468	0.71916310899563
5.8690770947533	0.71930776995354
5.8610451221896	0.71945258777152
5.8530351034752	0.71959756289040
5.8450469487229	0.71974269575261
5.8370805685358	0.71988798680203
5.8291358740035	0.72003343648377
5.8212127766990	0.72017904524400
5.8133111886756	0.72032481352979
5.8054310224632	0.72047074178888
5.7975721910656	0.72061683046955
5.7897346079567	0.72076308002038
5.7819181870781	0.72090949089013
5.7741228428351	0.72105606352752
5.7663484900942	0.72120279838105
5.7585950441798	0.72134969589886
5.7508624208709	0.72149675652849
5.7431505363985	0.72164398071675
5.7354593074421	0.72179136890953
5.7277886511272	0.72193892155161
5.7201384850219	0.72208663908651
5.7125087271341	0.72223452195628
5.7048992959087	0.72238257060136
5.6973101102242	0.72253078546040
5.6897410893908	0.72267916697008
5.6821921531463	0.72282771556492
5.6746632216544	0.72297643167717
5.6671542155009	0.72312531573656
5.6596650556919	0.72327436817021
5.6521956636501	0.72342358940241
5.6447459612126	0.72357297985449
5.6373158706281	0.72372253994462
5.6299053145540	0.72387227008769
5.6225142160540	0.72402217069509
5.6151424985952	0.72417224217463
5.6077900860456	0.72432248493031
5.6004569026714	0.72447289936218
5.5931428731343	0.72462348586623
5.5858479224893	0.72477424483415
5.5785719761816	0.72492517665327
5.5713149600446	0.72507628170634
5.5640768002970	0.72522756037141
5.5568574235403	0.72537901302166
5.5496567567568	0.72553064002530
5.5424747273063	0.72568244174537
5.5353112629247	0.72583441853962
5.5281662917204	0.72598657076037
5.5210397421731	0.72613889875437
5.5139315431304	0.72629140286266
5.5068416238060	0.72644408342042
5.4997699137773	0.72659694075686
5.4927163429828	0.72674997519506
5.4856808417200	0.72690318705187
5.4786633406433	0.72705657663775
5.4716637707611	0.72721014425664
5.4646820634342	0.72736389020589
5.4577181503732	0.72751781477605
5.4507719636364	0.72767191825083
5.4438434356274	0.72782620090691
5.4369324990932	0.72798066301389
5.4300390871219	0.72813530483411
5.4231631331404	0.72829012662258
5.4163045709124	0.72844512862687
5.4094633345363	0.72860031108695
5.4026393584430	0.72875567423515
5.3958325773938	0.72891121829600
5.3890429264785	0.72906694348617
5.3822703411131	0.72922285001432
5.3755147570378	0.72937893808106
5.3687761103152	0.72953520787881
5.3620543373278	0.72969165959171
5.3553493747767	0.72984829339555
5.3486611596789	0.73000510945766
5.3419896293656	0.73016210793684
5.3353347214807	0.73031928898325
5.3286963739780	0.73047665273836
5.3220745251198	0.73063419933482
5.3154691134752	0.73079192889645
5.3088800779175	0.73094984153811
5.3023073576229	0.73110793736565
5.2957508920685	0.73126621647582
5.2892106210303	0.73142467895624
5.2826864845815	0.73158332488528
5.2761784230905	0.73174215433205
5.2696863772192	0.73190116735631
5.2632102879213	0.73206036400841
5.2567500964405	0.73221974432923
5.2503057443082	0.73237930835017
5.2438771733427	0.73253905609302
5.2374643256464	0.73269898757001
5.2310671436050	0.73285910278366
5.2246855698850	0.73301940172681
5.2183195474326	0.73317988438257
5.2119690194715	0.73334055072425
5.2056339295016	0.73350140071534
5.1993142212973	0.73366243430949
5.1930098389052	0.73382365145047
5.1867207266436	0.73398505207213
5.1804468290997	0.73414663609839
5.1741880911288	0.73430840344321
5.1679444578521	0.73447035401059
5.1617158746556	0.73463248769450
5.1555022871883	0.73479480437894
5.1493036413604	0.73495730393786
5.1431198833419	0.73511998623517
5.1369509595613	0.73528285112478
5.1307968167037	0.73544589845051
5.1246574017094	0.73560912804617
5.1185326617722	0.73577253973551
5.1124225443383	0.73593613333223
5.1063269971044	0.73609990864001
5.1002459680163	0.73626386545251
5.0941794052676	0.73642800355335
5.0881272572980	0.73659232271617
5.0820894727920	0.73675682270462
5.0760660006773	0.73692150327237
5.0700567901235	0.73708636416318
5.0640617905405	0.73725140511086
5.0580809515775	0.73741662583934
5.0521142231210	0.73758202606270
5.0461615552937	0.73774760548518
5.0402228984533	0.73791336380122
5.0342982031906	0.73807930069552
5.0283874203287	0.73824541584306
5.0224905009214	0.73841170890913
5.0166073962517	0.73857817954941
5.0107380578305	0.73874482741000
5.0048824373957	0.73891165212747
4.9990404869101	0.73907865332891
4.9932121585610	0.73924583063199
4.9873974047579	0.73941318364502
4.9815961781323	0.73958071196702
4.9758084315353	0.73974841518776
4.9700341180371	0.73991629288784
4.9642731909256	0.74008434463876
4.9585256037049	0.74025257000300
4.9527913100942	0.74042096853405
4.9470702640264	0.74058953977654
4.9413624196473	0.74075828326631
4.9356677313138	0.74092719853044
4.9299861535932	0.74109628508739
4.9243176412615	0.74126554244706
4.9186621493027	0.74143497011090
4.9130196329072	0.74160456757196
4.9073900474709	0.74177433431502
4.9017733485939	0.74194426981665
4.8961694920790	0.74211437354536
4.8905784339315	0.74228464496165
4.8850001303569	0.74245508351813
4.8794345377604	0.74262568865962
4.8738816127459	0.74279645982328
4.8683413121143	0.74296739643869
4.8628135928629	0.74313849792795
4.8572984121841	0.74330976370585
4.8517957274640	0.74348119317992
4.8463054962819	0.74365278575059
4.8408276764088	0.74382454081129
4.8353622258065	0.74399645774858
