#Parameters = {thARC=1; nARC=2.75; thsub=1; p=1; nSub=3.75}
#"Wavelength / um"	"T (642) [Real Part]"
#---------------------------------------
14.989622900000	0.84025107697128
14.937342202292	0.84105174902037
14.885424925521	0.84184758300713
14.833867293419	0.84263851188953
14.782665581854	0.84342446853020
14.731816117936	0.84420538571010
14.681315279138	0.84498119614242
14.631159492435	0.84575183248651
14.581345233463	0.84651722736213
14.531869025691	0.84727731336365
14.482727439614	0.84803202307458
14.433917091960	0.84878128908209
14.385434644914	0.84952504399172
14.337276805356	0.85026322044227
14.289440324118	0.85099575112074
14.241921995249	0.85172256877741
14.194718655303	0.85244360624106
14.147827182633	0.85315879643431
14.101244496707	0.85386807238902
14.054967557431	0.85457136726183
14.008993364486	0.85526861434983
13.963318956684	0.85595974710624
13.917941411328	0.85664469915625
13.872857843591	0.85732340431294
13.828065405904	0.85799579659323
13.783561287356	0.85866181023396
13.739342713107	0.85932137970803
13.695406943810	0.85997443974054
13.651751275046	0.86062092532510
13.608373036768	0.86126077174008
13.565269592760	0.86189391456501
13.522438340099	0.86252028969692
13.479876708633	0.86313983336679
13.437582160466	0.86375248215602
13.395552189455	0.86435817301285
13.353784320713	0.86495684326895
13.312276110124	0.86554843065584
13.271025143869	0.86613287332144
13.230029037952	0.86671010984659
13.189285437747	0.86728007926154
13.148792017544	0.86784272106243
13.108546480105	0.86839797522778
13.068546556234	0.86894578223492
13.028790004346	0.86948608307642
12.989274610052	0.87001881927642
12.949998185745	0.87054393290700
12.910958570198	0.87106136660441
12.872153628167	0.87157106358530
12.833581250000	0.87207296766286
12.795239351259	0.87256702326289
12.757125872340	0.87305317543978
12.719238778108	0.87353136989244
12.681576057530	0.87400155298006
12.644135723323	0.87446367173787
12.606915811606	0.87491767389270
12.569914381551	0.87536350787849
12.533129515050	0.87580112285164
12.496559316382	0.87623046870626
12.460201911887	0.87665149608926
12.424055449648	0.87706415641531
12.388118099174	0.87746840188167
12.352388051092	0.87786418548282
12.316863516845	0.87825146102498
12.281542728390	0.87863018314040
12.246423937908	0.87900030730158
12.211505417515	0.87936178983516
12.176785458976	0.87971458793576
12.142262373431	0.88005865967953
12.107934491115	0.88039396403757
12.073800161095	0.88072046088909
12.039857751004	0.88103811103437
12.006105646776	0.88134687620752
11.972542252396	0.88164671908901
11.939165989646	0.88193760331791
11.905975297855	0.88221949350400
11.872968633663	0.88249235523954
11.840144470774	0.88275615511086
11.807501299724	0.88301086070962
11.775037627651	0.88325644064387
11.742751978065	0.88349286454885
11.710642890625	0.88372010309746
11.678708920919	0.88393812801050
11.646948640249	0.88414691206665
11.615360635413	0.88434642911206
11.583943508501	0.88453665406979
11.552695876686	0.88471756294884
11.521616372022	0.88488913285294
11.490703641242	0.88505134198903
11.459956345566	0.88520416967538
11.429373160503	0.88534759634947
11.398952775665	0.88548160357552
11.368693894577	0.88560617405169
11.338595234493	0.88572129161693
11.308655526217	0.88582694125761
11.278873513920	0.88592310911368
11.249247954972	0.88600978248460
11.219777619760	0.88608694983486
11.190461291527	0.88615460079922
11.161297766195	0.88621272618758
11.132285852209	0.88626131798949
11.103424370370	0.88630036937835
11.074712153676	0.88632987471521
11.046148047163	0.88634982955227
11.017730907755	0.88636023063603
10.989459604106	0.88636107591001
10.961333016453	0.88635236451718
10.933350036470	0.88633409680207
10.905509567115	0.88630627431239
10.877810522496	0.88626889980045
10.850251827723	0.88622197722409
10.822832418773	0.88616551174734
10.795551242348	0.88609950974067
10.768407255747	0.88602397878090
10.741399426729	0.88593892765075
10.714526733381	0.88584436633803
10.687788163993	0.88574030603446
10.661182716927	0.88562675913418
10.634709400497	0.88550373923182
10.608367232838	0.88537126112028
10.582155241793	0.88522934078817
10.556072464789	0.88507799541684
10.530117948718	0.88491724337706
10.504290749825	0.88474710422545
10.478589933590	0.88456759870042
10.453014574616	0.88437874871789
10.427563756522	0.88418057736659
10.402236571825	0.88397310890306
10.377032121841	0.88375636874629
10.351949516575	0.88353038347207
10.326987874612	0.88329518080695
10.302146323024	0.88305078962189
10.277423997257	0.88279723992566
10.252820041040	0.88253456285781
10.228333606278	0.88226279068139
10.203963852961	0.88198195677535
10.179709949066	0.88169209562662
10.155571070461	0.88139324282192
10.131546400811	0.88108543503920
10.107635131490	0.88076871003887
10.083836461487	0.88044310665470
10.060149597315	0.88010866478443
10.036573752929	0.87976542538010
10.013108149633	0.87941343043814
9.9897520159947	0.87905272298915
9.9665045877660	0.87868334708743
9.9433651077944	0.87830534780027
9.9203328259431	0.87791877119696
9.8974069990096	0.87752366433757
9.8745868906456	0.87712007526149
9.8518717712783	0.87670805297570
9.8292609180328	0.87628764744289
9.8067536146549	0.87585890956926
9.7843491514360	0.87542189119216
9.7620468251384	0.87497664506753
9.7398459389214	0.87452322485710
9.7177458022690	0.87406168511537
9.6957457309185	0.87359208127651
9.6738450467893	0.87311446964092
9.6520430779137	0.87262890736175
9.6303391583681	0.87213545243113
9.6087326282051	0.87163416366633
9.5872228333866	0.87112510069573
9.5658091257179	0.87060832394458
9.5444908627826	0.87008389462070
9.5232674078780	0.86955187470002
9.5021381299525	0.86901232691193
9.4811024035421	0.86846531472457
9.4601596087094	0.86791090232998
9.4393091309824	0.86734915462911
9.4185503612944	0.86678013721681
9.3978826959248	0.86620391636659
9.3773055364404	0.86562055901542
9.3568182896380	0.86503013274835
9.3364203674868	0.86443270578311
9.3161111870727	0.86382834695460
9.2958901705426	0.86321712569936
9.2757567450495	0.86259911203992
9.2557103426984	0.86197437656915
9.2357504004929	0.86134299043457
9.2158763602828	0.86070502532255
9.1960876687117	0.86006055344258
9.1763837771656	0.85940964751144
9.1567641417227	0.85875238073738
9.1372282231027	0.85808882680428
9.1177754866180	0.85741905985580
9.0984054021244	0.85674315447957
9.0791174439733	0.85606118569131
9.0599110909640	0.85537322891902
9.0407858262967	0.85467935998720
9.0217411375263	0.85397965510104
9.0027765165165	0.85327419083066
8.9838914593947	0.85256304409544
8.9650854665072	0.85184629214829
8.9463580423754	0.85112401256008
8.9277086956522	0.85039628320402
8.9091369390788	0.84966318224016
8.8906422894425	0.84892478809997
8.8722242675348	0.84818117947090
8.8538823981099	0.84743243528111
8.8356162098438	0.84667863468425
8.8174252352941	0.84591985704428
8.7993090108600	0.84515618192042
8.7812670767428	0.84438768905221
8.7632989769073	0.84361445834464
8.7454042590432	0.84283656985336
8.7275824745269	0.84205410377006
8.7098331783847	0.84126714040790
8.6921559292549	0.84047576018709
8.6745502893519	0.83968004362058
8.6570158244297	0.83888007129990
8.6395521037464	0.83807592388104
8.6221587000288	0.83726768207059
8.6048351894374	0.83645542661191
8.5875811515325	0.83563923827148
8.5703961692396	0.83481919782540
8.5532798288160	0.83399538604602
8.5362317198178	0.83316788368869
8.5192514350668	0.83233677147875
8.5023385706183	0.83150213009854
8.4854927257288	0.83066404017471
8.4687135028249	0.82982258226559
8.4520005074711	0.82897783684875
8.4353533483399	0.82812988430873
8.4187716371806	0.82727880492492
8.4022549887892	0.82642467885968
8.3858030209790	0.82556758614648
8.3694153545505	0.82470760667840
8.3530916132627	0.82384482019663
8.3368314238042	0.82297930627930
8.3206344157646	0.82211114433034
8.3045002216066	0.82124041356867
8.2884284766381	0.82036719301744
8.2724188189845	0.81949156149354
8.2564708895621	0.81861359759722
8.2405843320506	0.81773337970201
8.2247587928669	0.81685098594469
8.2089939211391	0.81596649421551
8.1932893686800	0.81507998214863
8.1776447899618	0.81419152711269
8.1620598420909	0.81330120620162
8.1465341847826	0.81240909622555
8.1310674803363	0.81151527370205
8.1156593936113	0.81061981484741
8.1003095920022	0.80972279556824
8.0850177454153	0.80882429145316
8.0697835262450	0.80792437776472
8.0546066093498	0.80702312943155
8.0394866720300	0.80612062104062
8.0244233940043	0.80521692682974
8.0094164573871	0.80431212068025
7.9944655466667	0.80340627610990
7.9795703486825	0.80249946626585
7.9647305526036	0.80159176391799
7.9499458499072	0.80068324145232
7.9352159343568	0.79977397086458
7.9205405019815	0.79886402375407
7.9059192510549	0.79795347131762
7.8913518820742	0.79704238434377
7.8768380977404	0.79613083320713
7.8623776029373	0.79521888786291
7.8479701047120	0.79430661784164
7.8336153122550	0.79339409224408
7.8193129368805	0.79248137973629
7.8050626920073	0.79156854854487
7.7908642931393	0.79065566645242
7.7767174578470	0.78974280079312
7.7626219057483	0.78883001844849
7.7485773584906	0.78791738584342
7.7345835397317	0.78700496894219
7.7206401751223	0.78609283324481
7.7067469922879	0.78518104378347
7.6929037208109	0.78426966511917
7.6791100922131	0.78335876133845
7.6653658399386	0.78244839605042
7.6516706993364	0.78153863238378
7.6380244076433	0.78062953298414
7.6244267039674	0.77972116001143
7.6108773292714	0.77881357513745
7.5973760263558	0.77790683954360
7.5839225398432	0.77700101391878
7.5705166161616	0.77609615845742
7.5571580035291	0.77519233285760
7.5438464519376	0.77428959631943
7.5305817131374	0.77338800754347
7.5173635406219	0.77248762472933
7.5041916896120	0.77158850557444
7.4910659170415	0.77069070727290
7.4779859815415	0.76979428651447
7.4649516434263	0.76889929948378
7.4519626646781	0.76800580185950
7.4390188089330	0.76711384881386
7.4261198414664	0.76622349501206
7.4132655291790	0.76533479461200
7.4004556405826	0.76444780126401
7.3876899457861	0.76356256811078
7.3749682164822	0.76267914778730
7.3622902259332	0.76179759242104
7.3496557489581	0.76091795363220
7.3370645619187	0.76004028253398
7.3245164427071	0.75916462973310
7.3120111707317	0.75829104533036
7.2995485269053	0.75741957892126
7.2871282936315	0.75655027959681
7.2747502547925	0.75568319594437
7.2624141957364	0.75481837604867
7.2501199032648	0.75395586749277
7.2378671656205	0.75309571735933
7.2256557724753	0.75223797223177
7.2134855149182	0.75138267819564
7.2013561854432	0.75052988084005
7.1892675779376	0.74967962525917
7.1772194876706	0.74883195605380
7.1652117112811	0.74798691733306
7.1532440467669	0.74714455271616
7.1413162934731	0.74630490533420
7.1294282520809	0.74546801783205
7.1175797245964	0.74463393237040
7.1057705143399	0.74380269062771
7.0940004259347	0.74297433380240
7.0822692652965	0.74214890261501
7.0705768396226	0.74132643731041
7.0589229573817	0.74050697766015
7.0473074283028	0.73969056296483
7.0357300633654	0.73887723205649
7.0241906747891	0.73806702330113
7.0126890760234	0.73725997460124
7.0012250817375	0.73645612339841
6.9897985078107	0.73565550667592
6.9784091713222	0.73485816096151
6.9670568905415	0.73406412233009
6.9557414849188	0.73327342640651
6.9444627750753	0.73248610836843
6.9332205827937	0.73170220294916
6.9220147310090	0.73092174444063
6.9108450437990	0.73014476669629
6.8997113463751	0.72937130313415
6.8886134650735	0.72860138673978
6.8775512273457	0.72783505006941
6.8665244617499	0.72707232525298
6.8555329979419	0.72631324399733
6.8445766666667	0.72555783758932
6.8336552997493	0.72480613689902
6.8227687300865	0.72405817238294
6.8119167916383	0.72331397408727
6.8010993194192	0.72257357165113
6.7903161494904	0.72183699430988
6.7795671189507	0.72110427089839
6.7688520659291	0.72037542985442
6.7581708295762	0.71965049922193
6.7475232500563	0.71892950665443
6.7369091685393	0.71821247941842
6.7263284271932	0.71749944439670
6.7157808691756	0.71679042809186
6.7052663386267	0.71608545662962
6.6947846806610	0.71538455576231
6.6843357413601	0.71468775087230
6.6739193677649	0.71399506697543
6.6635354078684	0.71330652872448
6.6531837106081	0.71262216041262
6.6428641258586	0.71194198597686
6.6325765044248	0.71126602900155
6.6223206980340	0.71059431272183
6.6120965593295	0.70992686002710
6.6019039418630	0.70926369346450
6.5917427000879	0.70860483524239
6.5816126893524	0.70795030723379
6.5715137658922	0.70730013097989
6.5614457868243	0.70665432769347
6.5514086101399	0.70601291826241
6.5414020946978	0.70537592325310
6.5314261002179	0.70474336291391
6.5214804872743	0.70411525717866
6.5115651172893	0.70349162566998
6.5016798525266	0.70287248770282
6.4918245560849	0.70225786228783
6.4819990918919	0.70164776813474
6.4722033246978	0.70104222365581
6.4624371200690	0.70044124696917
6.4527003443823	0.69984485590221
6.4429928648184	0.69925306799496
6.4333145493562	0.69866590050338
6.4236652667667	0.69808337040275
6.4140448866068	0.69750549439094
6.4044532792138	0.69693228889173
6.3948903156997	0.69636377005812
6.3853558679446	0.69579995377551
6.3758498085921	0.69524085566507
6.3663720110427	0.69468649108685
6.3569223494487	0.69413687514309
6.3475006987084	0.69359202268133
6.3381069344609	0.69305194829766
6.3287409330800	0.69251666633980
6.3194025716695	0.69198619091029
6.3100917280572	0.69146053586955
6.3008082807902	0.69093971483901
6.2915521091291	0.69042374120415
6.2823230930427	0.68991262811755
6.2731211132036	0.68940638850191
6.2639460509820	0.68890503505304
6.2547977884415	0.68840858024285
6.2456762083333	0.68791703632227
6.2365811940919	0.68743041532420
6.2275126298297	0.68694872906638
6.2184704003319	0.68647198915430
6.2094543910522	0.68600020698400
6.2004644881075	0.68553339374494
6.1915005782734	0.68507156042273
6.1825625489792	0.68461471780197
6.1736502883031	0.68416287646894
6.1647636849681	0.68371604681431
6.1559026283368	0.68327423903587
6.1470670084068	0.68283746314113
6.1382567158067	0.68240572895000
6.1294716417910	0.68197904609732
6.1207116782360	0.68155742403554
6.1119767176351	0.68114087203713
6.1032666530945	0.68072939919721
6.0945813783289	0.68032301443595
6.0859207876573	0.67992172650108
6.0772847759984	0.67952554397028
6.0686732388664	0.67913447525357
6.0600860723671	0.67874852859572
6.0515231731934	0.67836771207853
6.0429844386212	0.67799203362314
6.0344697665056	0.67762150099234
6.0259790552764	0.67725612179278
6.0175122039342	0.67689590347718
6.0090691120465	0.67654085334652
6.0006496797438	0.67619097855217
5.9922538077154	0.67584628609803
5.9838813972056	0.67550678284261
5.9755323500100	0.67517247550105
5.9672065684713	0.67484337064718
5.9589039554760	0.67451947471550
5.9506244144502	0.67420079400312
5.9423678493558	0.67388733467171
5.9341341646873	0.67357910274936
5.9259232654675	0.67327610413247
5.9177350572444	0.67297834458758
5.9095694460871	0.67268582975313
5.9014263385827	0.67239856514125
5.8933056418321	0.67211655613949
5.8852072634472	0.67183980801252
5.8771311115468	0.67156832590376
5.8690770947533	0.67130211483708
5.8610451221896	0.67104117971833
5.8530351034752	0.67078552533694
5.8450469487229	0.67053515636746
5.8370805685358	0.67029007737102
5.8291358740035	0.67005029279686
5.8212127766990	0.66981580698372
5.8133111886756	0.66958662416122
5.8054310224632	0.66936274845131
5.7975721910656	0.66914418386952
5.7897346079567	0.66893093432629
5.7819181870781	0.66872300362825
5.7741228428351	0.66852039547947
5.7663484900942	0.66832311348261
5.7585950441798	0.66813116114013
5.7508624208709	0.66794454185539
5.7431505363985	0.66776325893381
5.7354593074421	0.66758731558388
5.7277886511272	0.66741671491821
5.7201384850219	0.66725145995455
5.7125087271341	0.66709155361675
5.7048992959087	0.66693699873566
5.6973101102242	0.66678779805010
5.6897410893908	0.66664395420765
5.6821921531463	0.66650546976555
5.6746632216544	0.66637234719147
5.6671542155009	0.66624458886426
5.6596650556919	0.66612219707472
5.6521956636501	0.66600517402629
5.6447459612126	0.66589352183568
5.6373158706281	0.66578724253357
5.6299053145540	0.66568633806514
5.6225142160540	0.66559081029070
5.6151424985952	0.66550066098618
5.6077900860456	0.66541589184362
5.6004569026714	0.66533650447169
5.5931428731343	0.66526250039608
5.5858479224893	0.66519388105989
5.5785719761816	0.66513064782404
5.5713149600446	0.66507280196757
5.5640768002970	0.66502034468792
5.5568574235403	0.66497327710125
5.5496567567568	0.66493160024262
5.5424747273063	0.66489531506622
5.5353112629247	0.66486442244553
5.5281662917204	0.66483892317342
5.5210397421731	0.66481881796229
5.5139315431304	0.66480410744412
5.5068416238060	0.66479479217049
5.4997699137773	0.66479087261259
5.4927163429828	0.66479234916116
5.4856808417200	0.66479922212647
5.4786633406433	0.66481149173816
5.4716637707611	0.66482915814515
5.4646820634342	0.66485222141543
5.4577181503732	0.66488068153590
5.4507719636364	0.66491453841210
5.4438434356274	0.66495379186795
5.4369324990932	0.66499844164546
5.4300390871219	0.66504848740436
5.4231631331404	0.66510392872177
5.4163045709124	0.66516476509177
5.4094633345363	0.66523099592499
5.4026393584430	0.66530262054809
5.3958325773938	0.66537963820331
5.3890429264785	0.66546204804792
5.3822703411131	0.66554984915362
5.3755147570378	0.66564304050598
5.3687761103152	0.66574162100376
5.3620543373278	0.66584558945829
5.3553493747767	0.66595494459272
5.3486611596789	0.66606968504131
5.3419896293656	0.66618980934865
5.3353347214807	0.66631531596887
5.3286963739780	0.66644620326480
5.3220745251198	0.66658246950707
5.3154691134752	0.66672411287326
5.3088800779175	0.66687113144693
5.3023073576229	0.66702352321665
5.2957508920685	0.66718128607504
5.2892106210303	0.66734441781765
5.2826864845815	0.66751291614201
5.2761784230905	0.66768677864640
5.2696863772192	0.66786600282883
5.2632102879213	0.66805058608579
5.2567500964405	0.66824052571111
5.2503057443082	0.66843581889468
5.2438771733427	0.66863646272122
5.2374643256464	0.66884245416895
5.2310671436050	0.66905379010829
5.2246855698850	0.66927046730048
5.2183195474326	0.66949248239616
5.2119690194715	0.66971983193398
5.2056339295016	0.66995251233914
5.1993142212973	0.67019051992184
5.1930098389052	0.67043385087581
5.1867207266436	0.67068250127674
5.1804468290997	0.67093646708063
5.1741880911288	0.67119574412227
5.1679444578521	0.67146032811348
5.1617158746556	0.67173021464149
5.1555022871883	0.67200539916718
5.1493036413604	0.67228587702333
5.1431198833419	0.67257164341288
5.1369509595613	0.67286269340703
5.1307968167037	0.67315902194347
5.1246574017094	0.67346062382446
5.1185326617722	0.67376749371491
5.1124225443383	0.67407962614046
5.1063269971044	0.67439701548548
5.1002459680163	0.67471965599108
5.0941794052676	0.67504754175309
5.0881272572980	0.67538066671992
5.0820894727920	0.67571902469055
5.0760660006773	0.67606260931234
5.0700567901235	0.67641141407888
5.0640617905405	0.67676543232779
5.0580809515775	0.67712465723854
5.0521142231210	0.67748908183013
5.0461615552937	0.67785869895887
5.0402228984533	0.67823350131602
5.0342982031906	0.67861348142548
5.0283874203287	0.67899863164137
5.0224905009214	0.67938894414571
5.0166073962517	0.67978441094590
5.0107380578305	0.68018502387231
5.0048824373957	0.68059077457580
4.9990404869101	0.68100165452517
4.9932121585610	0.68141765500462
4.9873974047579	0.68183876711119
4.9815961781323	0.68226498175217
4.9758084315353	0.68269628964244
4.9700341180371	0.68313268130183
4.9642731909256	0.68357414705243
4.9585256037049	0.68402067701590
4.9527913100942	0.68447226111072
4.9470702640264	0.68492888904940
4.9413624196473	0.68539055033576
4.9356677313138	0.68585723426204
4.9299861535932	0.68632892990612
4.9243176412615	0.68680562612862
4.9186621493027	0.68728731157003
4.9130196329072	0.68777397464779
4.9073900474709	0.68826560355337
4.9017733485939	0.68876218624928
4.8961694920790	0.68926371046613
4.8905784339315	0.68977016369958
4.8850001303569	0.69028153320734
4.8794345377604	0.69079780600614
4.8738816127459	0.69131896886861
4.8683413121143	0.69184500832024
4.8628135928629	0.69237591063625
4.8572984121841	0.69291166183845
4.8517957274640	0.69345224769212
4.8463054962819	0.69399765370280
4.8408276764088	0.69454786511315
4.8353622258065	0.69510286689972
