#Parameters = {thARC=0.8; nARC=1.25; thsub=1; p=1; nSub=1.25}
#"Wavelength / um"	"T (65) [Real Part]"
#--------------------------------------
14.989622900000	0.98765443928143
14.937342202292	0.98773892799269
14.885424925521	0.98782208165284
14.833867293419	0.98790390972390
14.782665581854	0.98798442166260
14.731816117936	0.98806362691995
14.681315279138	0.98814153494069
14.631159492435	0.98821815516288
14.581345233463	0.98829349701737
14.531869025691	0.98836756992735
14.482727439614	0.98844038330790
14.433917091960	0.98851194656547
14.385434644914	0.98858226909747
14.337276805356	0.98865136029178
14.289440324118	0.98871922952629
14.241921995249	0.98878588616847
14.194718655303	0.98885133957491
14.147827182633	0.98891559909084
14.101244496707	0.98897867404975
14.054967557431	0.98904057377288
14.008993364486	0.98910130756884
13.963318956684	0.98916088473313
13.917941411328	0.98921931454774
13.872857843591	0.98927660628072
13.828065405904	0.98933276918572
13.783561287356	0.98938781250164
13.739342713107	0.98944174545212
13.695406943810	0.98949457724520
13.651751275046	0.98954631707290
13.608373036768	0.98959697411076
13.565269592760	0.98964655751751
13.522438340099	0.98969507643460
13.479876708633	0.98974253998585
13.437582160466	0.98978895727706
13.395552189455	0.98983433739557
13.353784320713	0.98987868940993
13.312276110124	0.98992202236948
13.271025143869	0.98996434530399
13.230029037952	0.99000566722327
13.189285437747	0.99004599711683
13.148792017544	0.99008534395345
13.108546480105	0.99012371668087
13.068546556234	0.99016112422541
13.028790004346	0.99019757549162
12.989274610052	0.99023307936190
12.949998185745	0.99026764469616
12.910958570198	0.99030128033150
12.872153628167	0.99033399508182
12.833581250000	0.99036579773754
12.795239351259	0.99039669706518
12.757125872340	0.99042670180710
12.719238778108	0.99045582068114
12.681576057530	0.99048406238030
12.644135723323	0.99051143557241
12.606915811606	0.99053794889982
12.569914381551	0.99056361097907
12.533129515050	0.99058843040060
12.496559316382	0.99061241572843
12.460201911887	0.99063557549985
12.424055449648	0.99065791822513
12.388118099174	0.99067945238722
12.352388051092	0.99070018644145
12.316863516845	0.99072012881523
12.281542728390	0.99073928790781
12.246423937908	0.99075767208993
12.211505417515	0.99077528970360
12.176785458976	0.99079214906177
12.142262373431	0.99080825844811
12.107934491115	0.99082362611671
12.073800161095	0.99083826029181
12.039857751004	0.99085216916757
12.006105646776	0.99086536090778
11.972542252396	0.99087784364562
11.939165989646	0.99088962548339
11.905975297855	0.99090071449230
11.872968633663	0.99091111871220
11.840144470774	0.99092084615133
11.807501299724	0.99092990478610
11.775037627651	0.99093830256086
11.742751978065	0.99094604738766
11.710642890625	0.99095314714603
11.678708920919	0.99095960968274
11.646948640249	0.99096544281161
11.615360635413	0.99097065431325
11.583943508501	0.99097525193490
11.552695876686	0.99097924339019
11.521616372022	0.99098263635892
11.490703641242	0.99098543848691
11.459956345566	0.99098765738574
11.429373160503	0.99098930063258
11.398952775665	0.99099037577003
11.368693894577	0.99099089030585
11.338595234493	0.99099085171288
11.308655526217	0.99099026742877
11.278873513920	0.99098914485584
11.249247954972	0.99098749136090
11.219777619760	0.99098531427507
11.190461291527	0.99098262089364
11.161297766195	0.99097941847585
11.132285852209	0.99097571424479
11.103424370370	0.99097151538720
11.074712153676	0.99096682905330
11.046148047163	0.99096166235671
11.017730907755	0.99095602237423
10.989459604106	0.99094991614570
10.961333016453	0.99094335067391
10.933350036470	0.99093633292440
10.905509567115	0.99092886982537
10.877810522496	0.99092096826750
10.850251827723	0.99091263510386
10.822832418773	0.99090387714979
10.795551242348	0.99089470118272
10.768407255747	0.99088511394211
10.741399426729	0.99087512212929
10.714526733381	0.99086473240737
10.687788163993	0.99085395140114
10.661182716927	0.99084278569691
10.634709400497	0.99083124184246
10.608367232838	0.99081932634692
10.582155241793	0.99080704568065
10.556072464789	0.99079440627517
10.530117948718	0.99078141452306
10.504290749825	0.99076807677786
10.478589933590	0.99075439935400
10.453014574616	0.99074038852669
10.427563756522	0.99072605053188
10.402236571825	0.99071139156612
10.377032121841	0.99069641778655
10.351949516575	0.99068113531079
10.326987874612	0.99066555021687
10.302146323024	0.99064966854318
10.277423997257	0.99063349628838
10.252820041040	0.99061703941137
10.228333606278	0.99060030383121
10.203963852961	0.99058329542708
10.179709949066	0.99056602003819
10.155571070461	0.99054848346380
10.131546400811	0.99053069146308
10.107635131490	0.99051264975515
10.083836461487	0.99049436401898
10.060149597315	0.99047583989340
10.036573752929	0.99045708297700
10.013108149633	0.99043809882815
9.9897520159947	0.99041889296495
9.9665045877660	0.99039947086519
9.9433651077944	0.99037983796636
9.9203328259431	0.99035999966555
9.8974069990096	0.99033996131953
9.8745868906456	0.99031972824466
9.8518717712783	0.99029930571687
9.8292609180328	0.99027869897172
9.8067536146549	0.99025791320428
9.7843491514360	0.99023695356923
9.7620468251384	0.99021582518077
9.7398459389214	0.99019453311267
9.7177458022690	0.99017308239822
9.6957457309185	0.99015147803029
9.6738450467893	0.99012972496128
9.6520430779137	0.99010782810316
9.6303391583681	0.99008579232746
9.6087326282051	0.99006362246527
9.5872228333866	0.99004132330729
9.5658091257179	0.99001889960382
9.5444908627826	0.98999635606478
9.5232674078780	0.98997369735970
9.5021381299525	0.98995092811781
9.4811024035421	0.98992805292800
9.4601596087094	0.98990507633889
9.4393091309824	0.98988200285882
9.4185503612944	0.98985883695591
9.3978826959248	0.98983558305808
9.3773055364404	0.98981224555308
9.3568182896380	0.98978882878855
9.3364203674868	0.98976533707202
9.3161111870727	0.98974177467099
9.2958901705426	0.98971814581295
9.2757567450495	0.98969445468544
9.2557103426984	0.98967070543607
9.2357504004929	0.98964690217261
9.2158763602828	0.98962304896300
9.1960876687117	0.98959914983544
9.1763837771656	0.98957520877841
9.1567641417227	0.98955122974076
9.1372282231027	0.98952721663174
9.1177754866180	0.98950317332108
9.0984054021244	0.98947910363906
9.0791174439733	0.98945501137653
9.0599110909640	0.98943090028504
9.0407858262967	0.98940677407687
9.0217411375263	0.98938263642509
9.0027765165165	0.98935849096367
8.9838914593947	0.98933434128752
8.9650854665072	0.98931019095258
8.9463580423754	0.98928604347590
8.9277086956522	0.98926190233572
8.9091369390788	0.98923777097154
8.8906422894425	0.98921365278420
8.8722242675348	0.98918955113599
8.8538823981099	0.98916546935070
8.8356162098438	0.98914141071375
8.8174252352941	0.98911737847223
8.7993090108600	0.98909337583503
8.7812670767428	0.98906940597293
8.7632989769073	0.98904547201866
8.7454042590432	0.98902157706704
8.7275824745269	0.98899772417503
8.7098331783847	0.98897391636189
8.6921559292549	0.98895015660922
8.6745502893519	0.98892644786110
8.6570158244297	0.98890279302417
8.6395521037464	0.98887919496775
8.6221587000288	0.98885565652395
8.6048351894374	0.98883218048776
8.5875811515325	0.98880876961718
8.5703961692396	0.98878542663330
8.5532798288160	0.98876215422046
8.5362317198178	0.98873895502631
8.5192514350668	0.98871583166196
8.5023385706183	0.98869278670210
8.4854927257288	0.98866982268508
8.4687135028249	0.98864694211307
8.4520005074711	0.98862414745217
8.4353533483399	0.98860144113250
8.4187716371806	0.98857882554837
8.4022549887892	0.98855630305838
8.3858030209790	0.98853387598554
8.3694153545505	0.98851154661740
8.3530916132627	0.98848931720621
8.3368314238042	0.98846718996899
8.3206344157646	0.98844516708770
8.3045002216066	0.98842325070938
8.2884284766381	0.98840144294626
8.2724188189845	0.98837974587587
8.2564708895621	0.98835816154126
8.2405843320506	0.98833669195103
8.2247587928669	0.98831533907956
8.2089939211391	0.98829410486707
8.1932893686800	0.98827299121982
8.1776447899618	0.98825200001024
8.1620598420909	0.98823113307702
8.1465341847826	0.98821039222533
8.1310674803363	0.98818977922690
8.1156593936113	0.98816929582020
8.1003095920022	0.98814894371059
8.0850177454153	0.98812872457042
8.0697835262450	0.98810864003925
8.0546066093498	0.98808869172393
8.0394866720300	0.98806888119879
8.0244233940043	0.98804921000579
8.0094164573871	0.98802967965465
7.9944655466667	0.98801029162301
7.9795703486825	0.98799104735660
7.9647305526036	0.98797194826937
7.9499458499072	0.98795299574368
7.9352159343568	0.98793419113041
7.9205405019815	0.98791553574915
7.9059192510549	0.98789703088835
7.8913518820742	0.98787867780547
7.8768380977404	0.98786047772716
7.8623776029373	0.98784243184940
7.8479701047120	0.98782454133767
7.8336153122550	0.98780680732709
7.8193129368805	0.98778923092264
7.8050626920073	0.98777181319926
7.7908642931393	0.98775455520204
7.7767174578470	0.98773745794641
7.7626219057483	0.98772052241825
7.7485773584906	0.98770374957410
7.7345835397317	0.98768714034132
7.7206401751223	0.98767069561825
7.7067469922879	0.98765441627437
7.6929037208109	0.98763830315050
7.6791100922131	0.98762235705892
7.6653658399386	0.98760657878360
7.6516706993364	0.98759096908032
7.6380244076433	0.98757552867688
7.6244267039674	0.98756025827324
7.6108773292714	0.98754515854171
7.5973760263558	0.98753023012712
7.5839225398432	0.98751547364702
7.5705166161616	0.98750088969178
7.5571580035291	0.98748647882487
7.5438464519376	0.98747224158294
7.5305817131374	0.98745817847605
7.5173635406219	0.98744428998785
7.5041916896120	0.98743057657571
7.4910659170415	0.98741703867095
7.4779859815415	0.98740367667900
7.4649516434263	0.98739049097955
7.4519626646781	0.98737748192680
7.4390188089330	0.98736464984954
7.4261198414664	0.98735199505142
7.4132655291790	0.98733951781110
7.4004556405826	0.98732721838240
7.3876899457861	0.98731509699452
7.3749682164822	0.98730315385222
7.3622902259332	0.98729138913597
7.3496557489581	0.98727980300218
7.3370645619187	0.98726839558334
7.3245164427071	0.98725716698822
7.3120111707317	0.98724611730206
7.2995485269053	0.98723524658675
7.2871282936315	0.98722455488101
7.2747502547925	0.98721404220057
7.2624141957364	0.98720370853838
7.2501199032648	0.98719355386476
7.2378671656205	0.98718357812761
7.2256557724753	0.98717378125259
7.2134855149182	0.98716416314332
7.2013561854432	0.98715472368152
7.1892675779376	0.98714546272725
7.1772194876706	0.98713638011908
7.1652117112811	0.98712747567425
7.1532440467669	0.98711874918891
7.1413162934731	0.98711020043826
7.1294282520809	0.98710182917675
7.1175797245964	0.98709363513829
7.1057705143399	0.98708561803640
7.0940004259347	0.98707777756446
7.0822692652965	0.98707011339582
7.0705768396226	0.98706262518404
7.0589229573817	0.98705531256307
7.0473074283028	0.98704817514744
7.0357300633654	0.98704121253243
7.0241906747891	0.98703442429430
7.0126890760234	0.98702780999043
7.0012250817375	0.98702136915954
6.9897985078107	0.98701510132187
6.9784091713222	0.98700900597940
6.9670568905415	0.98700308261597
6.9557414849188	0.98699733069754
6.9444627750753	0.98699174967235
6.9332205827937	0.98698633897111
6.9220147310090	0.98698109800718
6.9108450437990	0.98697602617681
6.8997113463751	0.98697112285924
6.8886134650735	0.98696638741700
6.8775512273457	0.98696181919599
6.8665244617499	0.98695741752577
6.8555329979419	0.98695318171967
6.8445766666667	0.98694911107504
6.8336552997493	0.98694520487339
6.8227687300865	0.98694146238062
6.8119167916383	0.98693788284719
6.8010993194192	0.98693446550832
6.7903161494904	0.98693120958417
6.7795671189507	0.98692811428003
6.7688520659291	0.98692517878652
6.7581708295762	0.98692240227978
6.7475232500563	0.98691978392164
6.7369091685393	0.98691732285983
6.7263284271932	0.98691501822817
6.7157808691756	0.98691286914674
6.7052663386267	0.98691087472209
6.6947846806610	0.98690903404741
6.6843357413601	0.98690734620275
6.6739193677649	0.98690581025517
6.6635354078684	0.98690442525895
6.6531837106081	0.98690319025578
6.6428641258586	0.98690210427495
6.6325765044248	0.98690116633351
6.6223206980340	0.98690037543651
6.6120965593295	0.98689973057713
6.6019039418630	0.98689923073692
6.5917427000879	0.98689887488594
6.5816126893524	0.98689866198299
6.5715137658922	0.98689859097576
6.5614457868243	0.98689866080104
6.5514086101399	0.98689887038491
6.5414020946978	0.98689921864290
6.5314261002179	0.98689970448020
6.5214804872743	0.98690032679184
6.5115651172893	0.98690108446286
6.5016798525266	0.98690197636854
6.4918245560849	0.98690300137451
6.4819990918919	0.98690415833700
6.4722033246978	0.98690544610301
6.4624371200690	0.98690686351048
6.4527003443823	0.98690840938846
6.4429928648184	0.98691008255733
6.4333145493562	0.98691188182897
6.4236652667667	0.98691380600693
6.4140448866068	0.98691585388661
6.4044532792138	0.98691802425547
6.3948903156997	0.98692031589319
6.3853558679446	0.98692272757184
6.3758498085921	0.98692525805609
6.3663720110427	0.98692790610336
6.3569223494487	0.98693067046405
6.3475006987084	0.98693354988164
6.3381069344609	0.98693654309294
6.3287409330800	0.98693964882823
6.3194025716695	0.98694286581147
6.3100917280572	0.98694619276045
6.3008082807902	0.98694962838695
6.2915521091291	0.98695317139699
6.2823230930427	0.98695682049092
6.2731211132036	0.98696057436365
6.2639460509820	0.98696443170482
6.2547977884415	0.98696839119896
6.2456762083333	0.98697245152565
6.2365811940919	0.98697661135975
6.2275126298297	0.98698086937152
6.2184704003319	0.98698522422679
6.2094543910522	0.98698967458720
6.2004644881075	0.98699421911029
6.1915005782734	0.98699885644972
6.1825625489792	0.98700358525543
6.1736502883031	0.98700840417379
6.1647636849681	0.98701331184782
6.1559026283368	0.98701830691730
6.1470670084068	0.98702338801898
6.1382567158067	0.98702855378673
6.1294716417910	0.98703380285172
6.1207116782360	0.98703913384255
6.1119767176351	0.98704454538550
6.1032666530945	0.98705003610457
6.0945813783289	0.98705560462179
6.0859207876573	0.98706124955725
6.0772847759984	0.98706696952935
6.0686732388664	0.98707276315495
6.0600860723671	0.98707862904950
6.0515231731934	0.98708456582723
6.0429844386212	0.98709057210130
6.0344697665056	0.98709664648396
6.0259790552764	0.98710278758674
6.0175122039342	0.98710899402055
6.0090691120465	0.98711526439590
6.0006496797438	0.98712159732301
5.9922538077154	0.98712799141199
5.9838813972056	0.98713444527301
5.9755323500100	0.98714095751642
5.9672065684713	0.98714752675295
5.9589039554760	0.98715415159381
5.9506244144502	0.98716083065088
5.9423678493558	0.98716756253689
5.9341341646873	0.98717434586548
5.9259232654675	0.98718117925147
5.9177350572444	0.98718806131090
5.9095694460871	0.98719499066127
5.9014263385827	0.98720196592162
5.8933056418321	0.98720898571272
5.8852072634472	0.98721604865721
5.8771311115468	0.98722315337975
5.8690770947533	0.98723029850713
5.8610451221896	0.98723748266847
5.8530351034752	0.98724470449532
5.8450469487229	0.98725196262185
5.8370805685358	0.98725925568493
5.8291358740035	0.98726658232433
5.8212127766990	0.98727394118283
5.8133111886756	0.98728133090637
5.8054310224632	0.98728875014419
5.7975721910656	0.98729619754895
5.7897346079567	0.98730367177692
5.7819181870781	0.98731117148804
5.7741228428351	0.98731869534613
5.7663484900942	0.98732624201897
5.7585950441798	0.98733381017846
5.7508624208709	0.98734139850077
5.7431505363985	0.98734900566642
5.7354593074421	0.98735663036047
5.7277886511272	0.98736427127262
5.7201384850219	0.98737192709733
5.7125087271341	0.98737959653398
5.7048992959087	0.98738727828698
5.6973101102242	0.98739497106588
5.6897410893908	0.98740267358554
5.6821921531463	0.98741038456622
5.6746632216544	0.98741810273370
5.6671542155009	0.98742582681943
5.6596650556919	0.98743355556065
5.6521956636501	0.98744128770048
5.6447459612126	0.98744902198808
5.6373158706281	0.98745675717872
5.6299053145540	0.98746449203397
5.6225142160540	0.98747222532174
5.6151424985952	0.98747995581646
5.6077900860456	0.98748768229915
5.6004569026714	0.98749540355757
5.5931428731343	0.98750311838629
5.5858479224893	0.98751082558686
5.5785719761816	0.98751852396786
5.5713149600446	0.98752621234506
5.5640768002970	0.98753388954151
5.5568574235403	0.98754155438763
5.5496567567568	0.98754920572136
5.5424747273063	0.98755684238822
5.5353112629247	0.98756446324145
5.5281662917204	0.98757206714210
5.5210397421731	0.98757965295912
5.5139315431304	0.98758721956950
5.5068416238060	0.98759476585833
5.4997699137773	0.98760229071893
5.4927163429828	0.98760979305290
5.4856808417200	0.98761727177031
5.4786633406433	0.98762472578970
5.4716637707611	0.98763215403823
5.4646820634342	0.98763955545175
5.4577181503732	0.98764692897491
5.4507719636364	0.98765427356126
5.4438434356274	0.98766158817330
5.4369324990932	0.98766887178262
5.4300390871219	0.98767612336996
5.4231631331404	0.98768334192529
5.4163045709124	0.98769052644794
5.4094633345363	0.98769767594662
5.4026393584430	0.98770478943956
5.3958325773938	0.98771186595459
5.3890429264785	0.98771890452918
5.3822703411131	0.98772590421055
5.3755147570378	0.98773286405577
5.3687761103152	0.98773978313179
5.3620543373278	0.98774666051555
5.3553493747767	0.98775349529405
5.3486611596789	0.98776028656444
5.3419896293656	0.98776703343406
5.3353347214807	0.98777373502055
5.3286963739780	0.98778039045188
5.3220745251198	0.98778699886645
5.3154691134752	0.98779355941318
5.3088800779175	0.98780007125153
5.3023073576229	0.98780653355158
5.2957508920685	0.98781294549412
5.2892106210303	0.98781930627071
5.2826864845815	0.98782561508370
5.2761784230905	0.98783187114635
5.2696863772192	0.98783807368286
5.2632102879213	0.98784422192843
5.2567500964405	0.98785031512935
5.2503057443082	0.98785635254298
5.2438771733427	0.98786233343792
5.2374643256464	0.98786825709395
5.2310671436050	0.98787412280217
5.2246855698850	0.98787992986501
5.2183195474326	0.98788567759628
5.2119690194715	0.98789136532124
5.2056339295016	0.98789699237665
5.1993142212973	0.98790255811078
5.1930098389052	0.98790806188351
5.1867207266436	0.98791350306633
5.1804468290997	0.98791888104241
5.1741880911288	0.98792419520665
5.1679444578521	0.98792944496567
5.1617158746556	0.98793462973792
5.1555022871883	0.98793974895366
5.1493036413604	0.98794480205505
5.1431198833419	0.98794978849615
5.1369509595613	0.98795470774294
5.1307968167037	0.98795955927341
5.1246574017094	0.98796434257755
5.1185326617722	0.98796905715739
5.1124225443383	0.98797370252704
5.1063269971044	0.98797827821270
5.1002459680163	0.98798278375272
5.0941794052676	0.98798721869757
5.0881272572980	0.98799158260994
5.0820894727920	0.98799587506469
5.0760660006773	0.98800009564893
5.0700567901235	0.98800424396202
5.0640617905405	0.98800831961557
5.0580809515775	0.98801232223349
5.0521142231210	0.98801625145199
5.0461615552937	0.98802010691960
5.0402228984533	0.98802388829718
5.0342982031906	0.98802759525795
5.0283874203287	0.98803122748750
5.0224905009214	0.98803478468375
5.0166073962517	0.98803826655706
5.0107380578305	0.98804167283014
5.0048824373957	0.98804500323811
4.9990404869101	0.98804825752849
4.9932121585610	0.98805143546122
4.9873974047579	0.98805453680865
4.9815961781323	0.98805756135552
4.9758084315353	0.98806050889902
4.9700341180371	0.98806337924874
4.9642731909256	0.98806617222667
4.9585256037049	0.98806888766722
4.9527913100942	0.98807152541723
4.9470702640264	0.98807408533589
4.9413624196473	0.98807656729483
4.9356677313138	0.98807897117804
4.9299861535932	0.98808129688189
4.9243176412615	0.98808354431512
4.9186621493027	0.98808571339882
4.9130196329072	0.98808780406643
4.9073900474709	0.98808981626369
4.9017733485939	0.98809174994868
4.8961694920790	0.98809360509176
4.8905784339315	0.98809538167556
4.8850001303569	0.98809707969497
4.8794345377604	0.98809869915712
4.8738816127459	0.98810024008133
4.8683413121143	0.98810170249915
4.8628135928629	0.98810308645425
4.8572984121841	0.98810439200247
4.8517957274640	0.98810561921174
4.8463054962819	0.98810676816209
4.8408276764088	0.98810783894560
4.8353622258065	0.98810883166635
