#Parameters = {thARC=0; nARC=1.25; thsub=1; p=1; nSub=4}
#"Wavelength / um"	"T (655) [Real Part]"
#---------------------------------------
14.989622900000	0.64000006994646
14.937342202292	0.64002788465473
14.885424925521	0.64005490447278
14.833867293419	0.64008114066943
14.782665581854	0.64010660444301
14.731816117936	0.64013130692084
14.681315279138	0.64015525915881
14.631159492435	0.64017847214101
14.581345233463	0.64020095677922
14.531869025691	0.64022272391261
14.482727439614	0.64024378430730
14.433917091960	0.64026414865600
14.385434644914	0.64028382757765
14.337276805356	0.64030283161708
14.289440324118	0.64032117124469
14.241921995249	0.64033885685609
14.194718655303	0.64035589877184
14.147827182633	0.64037230723713
14.101244496707	0.64038809242151
14.054967557431	0.64040326441861
14.008993364486	0.64041783324589
13.963318956684	0.64043180884438
13.917941411328	0.64044520107849
13.872857843591	0.64045801973574
13.828065405904	0.64047027452658
13.783561287356	0.64048197508419
13.739342713107	0.64049313096429
13.695406943810	0.64050375164497
13.651751275046	0.64051384652653
13.608373036768	0.64052342493131
13.565269592760	0.64053249610360
13.522438340099	0.64054106920945
13.479876708633	0.64054915333662
13.437582160466	0.64055675749441
13.395552189455	0.64056389061360
13.353784320713	0.64057056154638
13.312276110124	0.64057677906625
13.271025143869	0.64058255186795
13.230029037952	0.64058788856745
13.189285437747	0.64059279770188
13.148792017544	0.64059728772949
13.108546480105	0.64060136702964
13.068546556234	0.64060504390281
13.028790004346	0.64060832657056
12.989274610052	0.64061122317556
12.949998185745	0.64061374178162
12.910958570198	0.64061589037370
12.872153628167	0.64061767685792
12.833581250000	0.64061910906170
12.795239351259	0.64062019473369
12.757125872340	0.64062094154395
12.719238778108	0.64062135708395
12.681576057530	0.64062144886668
12.644135723323	0.64062122432673
12.606915811606	0.64062069082042
12.569914381551	0.64061985562588
12.533129515050	0.64061872594318
12.496559316382	0.64061730889444
12.460201911887	0.64061561152400
12.424055449648	0.64061364079852
12.388118099174	0.64061140360716
12.352388051092	0.64060890676173
12.316863516845	0.64060615699684
12.281542728390	0.64060316097011
12.246423937908	0.64059992526233
12.211505417515	0.64059645637762
12.176785458976	0.64059276074370
12.142262373431	0.64058884471202
12.107934491115	0.64058471455800
12.073800161095	0.64058037648126
12.039857751004	0.64057583660583
12.006105646776	0.64057110098038
11.972542252396	0.64056617557847
11.939165989646	0.64056106629878
11.905975297855	0.64055577896537
11.872968633663	0.64055031932795
11.840144470774	0.64054469306211
11.807501299724	0.64053890576962
11.775037627651	0.64053296297871
11.742751978065	0.64052687014431
11.710642890625	0.64052063264840
11.678708920919	0.64051425580024
11.646948640249	0.64050774483674
11.615360635413	0.64050110492270
11.583943508501	0.64049434115114
11.552695876686	0.64048745854364
11.521616372022	0.64048046205065
11.490703641242	0.64047335655178
11.459956345566	0.64046614685620
11.429373160503	0.64045883770290
11.398952775665	0.64045143376111
11.368693894577	0.64044393963058
11.338595234493	0.64043635984195
11.308655526217	0.64042869885713
11.278873513920	0.64042096106963
11.249247954972	0.64041315080495
11.219777619760	0.64040527232090
11.190461291527	0.64039732980805
11.161297766195	0.64038932739003
11.132285852209	0.64038126912395
11.103424370370	0.64037315900078
11.074712153676	0.64036500094575
11.046148047163	0.64035679881870
11.017730907755	0.64034855641453
10.989459604106	0.64034027746356
10.961333016453	0.64033196563193
10.933350036470	0.64032362452205
10.905509567115	0.64031525767297
10.877810522496	0.64030686856080
10.850251827723	0.64029846059913
10.822832418773	0.64029003713943
10.795551242348	0.64028160147153
10.768407255747	0.64027315682398
10.741399426729	0.64026470636447
10.714526733381	0.64025625320035
10.687788163993	0.64024780037895
10.661182716927	0.64023935088809
10.634709400497	0.64023090765651
10.608367232838	0.64022247355425
10.582155241793	0.64021405139318
10.556072464789	0.64020564392738
10.530117948718	0.64019725385360
10.504290749825	0.64018888381173
10.478589933590	0.64018053638523
10.453014574616	0.64017221410158
10.427563756522	0.64016391943273
10.402236571825	0.64015565479561
10.377032121841	0.64014742255249
10.351949516575	0.64013922501153
10.326987874612	0.64013106442719
10.302146323024	0.64012294300070
10.277423997257	0.64011486288052
10.252820041040	0.64010682616284
10.228333606278	0.64009883489200
10.203963852961	0.64009089106097
10.179709949066	0.64008299661183
10.155571070461	0.64007515343623
10.131546400811	0.64006736337587
10.107635131490	0.64005962822293
10.083836461487	0.64005194972062
10.060149597315	0.64004432956357
10.036573752929	0.64003676939835
10.013108149633	0.64002927082393
9.9897520159947	0.64002183539217
9.9665045877660	0.64001446460827
9.9433651077944	0.64000715993125
9.9203328259431	0.63999992277444
9.8974069990096	0.63999275450594
9.8745868906456	0.63998565644912
9.8518717712783	0.63997862988307
9.8292609180328	0.63997167604307
9.8067536146549	0.63996479612111
9.7843491514360	0.63995799126632
9.7620468251384	0.63995126258546
9.7398459389214	0.63994461114342
9.7177458022690	0.63993803796367
9.6957457309185	0.63993154402873
9.6738450467893	0.63992513028068
9.6520430779137	0.63991879762160
9.6303391583681	0.63991254691405
9.6087326282051	0.63990637898157
9.5872228333866	0.63990029460914
9.5658091257179	0.63989429454363
9.5444908627826	0.63988837949430
9.5232674078780	0.63988255013327
9.5021381299525	0.63987680709600
9.4811024035421	0.63987115098171
9.4601596087094	0.63986558235393
9.4393091309824	0.63986010174089
9.4185503612944	0.63985470963605
9.3978826959248	0.63984940649853
9.3773055364404	0.63984419275359
9.3568182896380	0.63983906879310
9.3364203674868	0.63983403497598
9.3161111870727	0.63982909162870
9.2958901705426	0.63982423904571
9.2757567450495	0.63981947748992
9.2557103426984	0.63981480719315
9.2357504004929	0.63981022835660
9.2158763602828	0.63980574115128
9.1960876687117	0.63980134571850
9.1763837771656	0.63979704217029
9.1567641417227	0.63979283058990
9.1372282231027	0.63978871103218
9.1177754866180	0.63978468352411
9.0984054021244	0.63978074806518
9.0791174439733	0.63977690462789
9.0599110909640	0.63977315315814
9.0407858262967	0.63976949357573
9.0217411375263	0.63976592577475
9.0027765165165	0.63976244962408
8.9838914593947	0.63975906496776
8.9650854665072	0.63975577162546
8.9463580423754	0.63975256939292
8.9277086956522	0.63974945804238
8.9091369390788	0.63974643732299
8.8906422894425	0.63974350696126
8.8722242675348	0.63974066666147
8.8538823981099	0.63973791610613
8.8356162098438	0.63973525495634
8.8174252352941	0.63973268285226
8.7993090108600	0.63973019941352
8.7812670767428	0.63972780423962
8.7632989769073	0.63972549691035
8.7454042590432	0.63972327698622
8.7275824745269	0.63972114400883
8.7098331783847	0.63971909750132
8.6921559292549	0.63971713696875
8.6745502893519	0.63971526189849
8.6570158244297	0.63971347176065
8.6395521037464	0.63971176600848
8.6221587000288	0.63971014407871
8.6048351894374	0.63970860539202
8.5875811515325	0.63970714935338
8.5703961692396	0.63970577535244
8.5532798288160	0.63970448276392
8.5362317198178	0.63970327094803
8.5192514350668	0.63970213925078
8.5023385706183	0.63970108700442
8.4854927257288	0.63970011352778
8.4687135028249	0.63969921812665
8.4520005074711	0.63969840009417
8.4353533483399	0.63969765871115
8.4187716371806	0.63969699324650
8.4022549887892	0.63969640295751
8.3858030209790	0.63969588709029
8.3694153545505	0.63969544488008
8.3530916132627	0.63969507555162
8.3368314238042	0.63969477831947
8.3206344157646	0.63969455238840
8.3045002216066	0.63969439695373
8.2884284766381	0.63969431120162
8.2724188189845	0.63969429430950
8.2564708895621	0.63969434544630
8.2405843320506	0.63969446377289
8.2247587928669	0.63969464844231
8.2089939211391	0.63969489860018
8.1932893686800	0.63969521338499
8.1776447899618	0.63969559192840
8.1620598420909	0.63969603335560
8.1465341847826	0.63969653678561
8.1310674803363	0.63969710133158
8.1156593936113	0.63969772610111
8.1003095920022	0.63969841019658
8.0850177454153	0.63969915271540
8.0697835262450	0.63969995275036
8.0546066093498	0.63970080938991
8.0394866720300	0.63970172171845
8.0244233940043	0.63970268881663
8.0094164573871	0.63970370976163
7.9944655466667	0.63970478362746
7.9795703486825	0.63970590948523
7.9647305526036	0.63970708640342
7.9499458499072	0.63970831344818
7.9352159343568	0.63970958968361
7.9205405019815	0.63971091417196
7.9059192510549	0.63971228597401
7.8913518820742	0.63971370414923
7.8768380977404	0.63971516775610
7.8623776029373	0.63971667585236
7.8479701047120	0.63971822749521
7.8336153122550	0.63971982174167
7.8193129368805	0.63972145764872
7.8050626920073	0.63972313427360
7.7908642931393	0.63972485067403
7.7767174578470	0.63972660590849
7.7626219057483	0.63972839903639
7.7485773584906	0.63973022911834
7.7345835397317	0.63973209521641
7.7206401751223	0.63973399639427
7.7067469922879	0.63973593171749
7.6929037208109	0.63973790025374
7.6791100922131	0.63973990107297
7.6653658399386	0.63974193324769
7.6516706993364	0.63974399585311
7.6380244076433	0.63974608796738
7.6244267039674	0.63974820867181
7.6108773292714	0.63975035705103
7.5973760263558	0.63975253219322
7.5839225398432	0.63975473319029
7.5705166161616	0.63975695913807
7.5571580035291	0.63975920913650
7.5438464519376	0.63976148228983
7.5305817131374	0.63976377770675
7.5173635406219	0.63976609450063
7.5041916896120	0.63976843178966
7.4910659170415	0.63977078869704
7.4779859815415	0.63977316435112
7.4649516434263	0.63977555788559
7.4519626646781	0.63977796843964
7.4390188089330	0.63978039515810
7.4261198414664	0.63978283719163
7.4132655291790	0.63978529369684
7.4004556405826	0.63978776383645
7.3876899457861	0.63979024677944
7.3749682164822	0.63979274170119
7.3622902259332	0.63979524778363
7.3496557489581	0.63979776421536
7.3370645619187	0.63980029019179
7.3245164427071	0.63980282491529
7.3120111707317	0.63980536759529
7.2995485269053	0.63980791744840
7.2871282936315	0.63981047369858
7.2747502547925	0.63981303557721
7.2624141957364	0.63981560232321
7.2501199032648	0.63981817318318
7.2378671656205	0.63982074741150
7.2256557724753	0.63982332427042
7.2134855149182	0.63982590303017
7.2013561854432	0.63982848296907
7.1892675779376	0.63983106337363
7.1772194876706	0.63983364353863
7.1652117112811	0.63983622276721
7.1532440467669	0.63983880037098
7.1413162934731	0.63984137567010
7.1294282520809	0.63984394799333
7.1175797245964	0.63984651667817
7.1057705143399	0.63984908107088
7.0940004259347	0.63985164052657
7.0822692652965	0.63985419440932
7.0705768396226	0.63985674209216
7.0589229573817	0.63985928295721
7.0473074283028	0.63986181639572
7.0357300633654	0.63986434180811
7.0241906747891	0.63986685860406
7.0126890760234	0.63986936620253
7.0012250817375	0.63987186403185
6.9897985078107	0.63987435152975
6.9784091713222	0.63987682814339
6.9670568905415	0.63987929332943
6.9557414849188	0.63988174655406
6.9444627750753	0.63988418729304
6.9332205827937	0.63988661503174
6.9220147310090	0.63988902926516
6.9108450437990	0.63989142949797
6.8997113463751	0.63989381524456
6.8886134650735	0.63989618602900
6.8775512273457	0.63989854138515
6.8665244617499	0.63990088085660
6.8555329979419	0.63990320399675
6.8445766666667	0.63990551036877
6.8336552997493	0.63990779954568
6.8227687300865	0.63991007111029
6.8119167916383	0.63991232465526
6.8010993194192	0.63991455978307
6.7903161494904	0.63991677610605
6.7795671189507	0.63991897324636
6.7688520659291	0.63992115083602
6.7581708295762	0.63992330851686
6.7475232500563	0.63992544594055
6.7369091685393	0.63992756276858
6.7263284271932	0.63992965867223
6.7157808691756	0.63993173333261
6.7052663386267	0.63993378644059
6.6947846806610	0.63993581769680
6.6843357413601	0.63993782681163
6.6739193677649	0.63993981350517
6.6635354078684	0.63994177750723
6.6531837106081	0.63994371855728
6.6428641258586	0.63994563640444
6.6325765044248	0.63994753080744
6.6223206980340	0.63994940153459
6.6120965593295	0.63995124836376
6.6019039418630	0.63995307108233
6.5917427000879	0.63995486948714
6.5816126893524	0.63995664338447
6.5715137658922	0.63995839259000
6.5614457868243	0.63996011692875
6.5514086101399	0.63996181623505
6.5414020946978	0.63996349035247
6.5314261002179	0.63996513913381
6.5214804872743	0.63996676244100
6.5115651172893	0.63996836014509
6.5016798525266	0.63996993212617
6.4918245560849	0.63997147827330
6.4819990918919	0.63997299848452
6.4722033246978	0.63997449266670
6.4624371200690	0.63997596073554
6.4527003443823	0.63997740261548
6.4429928648184	0.63997881823966
6.4333145493562	0.63998020754982
6.4236652667667	0.63998157049626
6.4140448866068	0.63998290703776
6.4044532792138	0.63998421714151
6.3948903156997	0.63998550078303
6.3853558679446	0.63998675794611
6.3758498085921	0.63998798862275
6.3663720110427	0.63998919281302
6.3569223494487	0.63999037052507
6.3475006987084	0.63999152177499
6.3381069344609	0.63999264658672
6.3287409330800	0.63999374499204
6.3194025716695	0.63999481703041
6.3100917280572	0.63999586274894
6.3008082807902	0.63999688220226
6.2915521091291	0.63999787545246
6.2823230930427	0.63999884256903
6.2731211132036	0.63999978362869
6.2639460509820	0.64000069871538
6.2547977884415	0.64000158792015
6.2456762083333	0.64000245134102
6.2365811940919	0.64000328908296
6.2275126298297	0.64000410125775
6.2184704003319	0.64000488798387
6.2094543910522	0.64000564938648
6.2004644881075	0.64000638559722
6.1915005782734	0.64000709675421
6.1825625489792	0.64000778300187
6.1736502883031	0.64000844449089
6.1647636849681	0.64000908137808
6.1559026283368	0.64000969382629
6.1470670084068	0.64001028200430
6.1382567158067	0.64001084608674
6.1294716417910	0.64001138625396
6.1207116782360	0.64001190269193
6.1119767176351	0.64001239559216
6.1032666530945	0.64001286515156
6.0945813783289	0.64001331157236
6.0859207876573	0.64001373506200
6.0772847759984	0.64001413583302
6.0686732388664	0.64001451410295
6.0600860723671	0.64001487009419
6.0515231731934	0.64001520403396
6.0429844386212	0.64001551615409
6.0344697665056	0.64001580669103
6.0259790552764	0.64001607588563
6.0175122039342	0.64001632398312
6.0090691120465	0.64001655123294
6.0006496797438	0.64001675788867
5.9922538077154	0.64001694420787
5.9838813972056	0.64001711045204
5.9755323500100	0.64001725688644
5.9672065684713	0.64001738378002
5.9589039554760	0.64001749140530
5.9506244144502	0.64001758003825
5.9423678493558	0.64001764995820
5.9341341646873	0.64001770144768
5.9259232654675	0.64001773479238
5.9177350572444	0.64001775028098
5.9095694460871	0.64001774820506
5.9014263385827	0.64001772885899
5.8933056418321	0.64001769253981
5.8852072634472	0.64001763954712
5.8771311115468	0.64001757018299
5.8690770947533	0.64001748475182
5.8610451221896	0.64001738356022
5.8530351034752	0.64001726691696
5.8450469487229	0.64001713513277
5.8370805685358	0.64001698852030
5.8291358740035	0.64001682739400
5.8212127766990	0.64001665206996
5.8133111886756	0.64001646286587
5.8054310224632	0.64001626010085
5.7975721910656	0.64001604409538
5.7897346079567	0.64001581517117
5.7819181870781	0.64001557365106
5.7741228428351	0.64001531985891
5.7663484900942	0.64001505411949
5.7585950441798	0.64001477675838
5.7508624208709	0.64001448810184
5.7431505363985	0.64001418847675
5.7354593074421	0.64001387821045
5.7277886511272	0.64001355763066
5.7201384850219	0.64001322706538
5.7125087271341	0.64001288684278
5.7048992959087	0.64001253729109
5.6973101102242	0.64001217873851
5.6897410893908	0.64001181151308
5.6821921531463	0.64001143594262
5.6746632216544	0.64001105235458
5.6671542155009	0.64001066107599
5.6596650556919	0.64001026243331
5.6521956636501	0.64000985675236
5.6447459612126	0.64000944435824
5.6373158706281	0.64000902557516
5.6299053145540	0.64000860072644
5.6225142160540	0.64000817013434
5.6151424985952	0.64000773411998
5.6077900860456	0.64000729300326
5.6004569026714	0.64000684710277
5.5931428731343	0.64000639673569
5.5858479224893	0.64000594221766
5.5785719761816	0.64000548386276
5.5713149600446	0.64000502198337
5.5640768002970	0.64000455689009
5.5568574235403	0.64000408889164
5.5496567567568	0.64000361829482
5.5424747273063	0.64000314540437
5.5353112629247	0.64000267052289
5.5281662917204	0.64000219395080
5.5210397421731	0.64000171598621
5.5139315431304	0.64000123692485
5.5068416238060	0.64000075706000
5.4997699137773	0.64000027668240
5.4927163429828	0.63999979608016
5.4856808417200	0.63999931553871
5.4786633406433	0.63999883534070
5.4716637707611	0.63999835576593
5.4646820634342	0.63999787709127
5.4577181503732	0.63999739959060
5.4507719636364	0.63999692353473
5.4438434356274	0.63999644919132
5.4369324990932	0.63999597682482
5.4300390871219	0.63999550669639
5.4231631331404	0.63999503906385
5.4163045709124	0.63999457418162
5.4094633345363	0.63999411230059
5.4026393584430	0.63999365366816
5.3958325773938	0.63999319852807
5.3890429264785	0.63999274712043
5.3822703411131	0.63999229968160
5.3755147570378	0.63999185644414
5.3687761103152	0.63999141763678
5.3620543373278	0.63999098348434
5.3553493747767	0.63999055420767
5.3486611596789	0.63999013002363
5.3419896293656	0.63998971114498
5.3353347214807	0.63998929778039
5.3286963739780	0.63998889013435
5.3220745251198	0.63998848840714
5.3154691134752	0.63998809279477
5.3088800779175	0.63998770348894
5.3023073576229	0.63998732067701
5.2957508920685	0.63998694454193
5.2892106210303	0.63998657526221
5.2826864845815	0.63998621301189
5.2761784230905	0.63998585796050
5.2696863772192	0.63998551027301
5.2632102879213	0.63998517010977
5.2567500964405	0.63998483762656
5.2503057443082	0.63998451297445
5.2438771733427	0.63998419629985
5.2374643256464	0.63998388774444
5.2310671436050	0.63998358744515
5.2246855698850	0.63998329553414
5.2183195474326	0.63998301213877
5.2119690194715	0.63998273738155
5.2056339295016	0.63998247138016
5.1993142212973	0.63998221424740
5.1930098389052	0.63998196609119
5.1867207266436	0.63998172701452
5.1804468290997	0.63998149711546
5.1741880911288	0.63998127648715
5.1679444578521	0.63998106521775
5.1617158746556	0.63998086339046
5.1555022871883	0.63998067108350
5.1493036413604	0.63998048837008
5.1431198833419	0.63998031531844
5.1369509595613	0.63998015199178
5.1307968167037	0.63997999844830
5.1246574017094	0.63997985474119
5.1185326617722	0.63997972091861
5.1124225443383	0.63997959702370
5.1063269971044	0.63997948309458
5.1002459680163	0.63997937916435
5.0941794052676	0.63997928526109
5.0881272572980	0.63997920140788
5.0820894727920	0.63997912762278
5.0760660006773	0.63997906391886
5.0700567901235	0.63997901030421
5.0640617905405	0.63997896678192
5.0580809515775	0.63997893335013
5.0521142231210	0.63997891000202
5.0461615552937	0.63997889672584
5.0402228984533	0.63997889350491
5.0342982031906	0.63997890031764
5.0283874203287	0.63997891713757
5.0224905009214	0.63997894393336
5.0166073962517	0.63997898066883
5.0107380578305	0.63997902730300
5.0048824373957	0.63997908379006
4.9990404869101	0.63997915007945
4.9932121585610	0.63997922611587
4.9873974047579	0.63997931183931
4.9815961781323	0.63997940718505
4.9758084315353	0.63997951208375
4.9700341180371	0.63997962646145
4.9642731909256	0.63997975023957
4.9585256037049	0.63997988333502
4.9527913100942	0.63998002566018
4.9470702640264	0.63998017712296
4.9413624196473	0.63998033762683
4.9356677313138	0.63998050707087
4.9299861535932	0.63998068534982
4.9243176412615	0.63998087235408
4.9186621493027	0.63998106796982
4.9130196329072	0.63998127207897
4.9073900474709	0.63998148455929
4.9017733485939	0.63998170528445
4.8961694920790	0.63998193412399
4.8905784339315	0.63998217094348
4.8850001303569	0.63998241560449
4.8794345377604	0.63998266796468
4.8738816127459	0.63998292787785
4.8683413121143	0.63998319519399
4.8628135928629	0.63998346975934
4.8572984121841	0.63998375141645
4.8517957274640	0.63998404000423
4.8463054962819	0.63998433535802
4.8408276764088	0.63998463730965
4.8353622258065	0.63998494568749
