#Parameters = {thARC=0.4; nARC=1.25; thsub=1; p=1; nSub=4}
#"Wavelength / um"	"T (657) [Real Part]"
#---------------------------------------
14.989622900000	0.64581140045321
14.937342202292	0.64589540062269
14.885424925521	0.64597825487578
14.833867293419	0.64605998107883
14.782665581854	0.64614059701364
14.731816117936	0.64622012037598
14.681315279138	0.64629856877422
14.631159492435	0.64637595972793
14.581345233463	0.64645231066653
14.531869025691	0.64652763892795
14.482727439614	0.64660196175735
14.433917091960	0.64667529630584
14.385434644914	0.64674765962923
14.337276805356	0.64681906868682
14.289440324118	0.64688954034024
14.241921995249	0.64695909135221
14.194718655303	0.64702773838549
14.147827182633	0.64709549800174
14.101244496707	0.64716238666043
14.054967557431	0.64722842071779
14.008993364486	0.64729361642580
13.963318956684	0.64735798993118
13.917941411328	0.64742155727441
13.872857843591	0.64748433438880
13.828065405904	0.64754633709955
13.783561287356	0.64760758112288
13.739342713107	0.64766808206514
13.695406943810	0.64772785542199
13.651751275046	0.64778691657757
13.608373036768	0.64784528080370
13.565269592760	0.64790296325915
13.522438340099	0.64795997898885
13.479876708633	0.64801634292324
13.437582160466	0.64807206987753
13.395552189455	0.64812717455104
13.353784320713	0.64818167152661
13.312276110124	0.64823557526991
13.271025143869	0.64828890012891
13.230029037952	0.64834166033330
13.189285437747	0.64839386999392
13.148792017544	0.64844554310228
13.108546480105	0.64849669353005
13.068546556234	0.64854733502857
13.028790004346	0.64859748122844
12.989274610052	0.64864714563907
12.949998185745	0.64869634164828
12.910958570198	0.64874508252192
12.872153628167	0.64879338140353
12.833581250000	0.64884125131400
12.795239351259	0.64888870515122
12.757125872340	0.64893575568985
12.719238778108	0.64898241558102
12.681576057530	0.64902869735207
12.644135723323	0.64907461340636
12.606915811606	0.64912017602303
12.569914381551	0.64916539735682
12.533129515050	0.64921028943796
12.496559316382	0.64925486417192
12.460201911887	0.64929913333941
12.424055449648	0.64934310859618
12.388118099174	0.64938680147298
12.352388051092	0.64943022337551
12.316863516845	0.64947338558432
12.281542728390	0.64951629925485
12.246423937908	0.64955897541737
12.211505417515	0.64960142497705
12.176785458976	0.64964365871390
12.142262373431	0.64968568728293
12.107934491115	0.64972752121412
12.073800161095	0.64976917091256
12.039857751004	0.64981064665853
12.006105646776	0.64985195860762
11.972542252396	0.64989311679089
11.939165989646	0.64993413111497
11.905975297855	0.64997501136229
11.872968633663	0.65001576719121
11.840144470774	0.65005640813628
11.807501299724	0.65009694360840
11.775037627651	0.65013738289509
11.742751978065	0.65017773516073
11.710642890625	0.65021800944680
11.678708920919	0.65025821467222
11.646948640249	0.65029835963357
11.615360635413	0.65033845300545
11.583943508501	0.65037850334077
11.552695876686	0.65041851907113
11.521616372022	0.65045850850712
11.490703641242	0.65049847983870
11.459956345566	0.65053844113561
11.429373160503	0.65057840034773
11.398952775665	0.65061836530546
11.368693894577	0.65065834372020
11.338595234493	0.65069834318474
11.308655526217	0.65073837117370
11.278873513920	0.65077843504400
11.249247954972	0.65081854203531
11.219777619760	0.65085869927053
11.190461291527	0.65089891375631
11.161297766195	0.65093919238350
11.132285852209	0.65097954192769
11.103424370370	0.65101996904975
11.074712153676	0.65106048029632
11.046148047163	0.65110108210038
11.017730907755	0.65114178078180
10.989459604106	0.65118258254793
10.961333016453	0.65122349349411
10.933350036470	0.65126451960431
10.905509567115	0.65130566675171
10.877810522496	0.65134694069928
10.850251827723	0.65138834710043
10.822832418773	0.65142989149960
10.795551242348	0.65147157933288
10.768407255747	0.65151341592871
10.741399426729	0.65155540650843
10.714526733381	0.65159755618702
10.687788163993	0.65163986997371
10.661182716927	0.65168235277269
10.634709400497	0.65172500938373
10.608367232838	0.65176784450293
10.582155241793	0.65181086272337
10.556072464789	0.65185406853580
10.530117948718	0.65189746632940
10.504290749825	0.65194106039243
10.478589933590	0.65198485491299
10.453014574616	0.65202885397972
10.427563756522	0.65207306158256
10.402236571825	0.65211748161344
10.377032121841	0.65216211786709
10.351949516575	0.65220697404172
10.326987874612	0.65225205373981
10.302146323024	0.65229736046888
10.277423997257	0.65234289764222
10.252820041040	0.65238866857969
10.228333606278	0.65243467650847
10.203963852961	0.65248092456385
10.179709949066	0.65252741579004
10.155571070461	0.65257415314089
10.131546400811	0.65262113948075
10.107635131490	0.65266837758522
10.083836461487	0.65271587014199
10.060149597315	0.65276361975160
10.036573752929	0.65281162892828
10.013108149633	0.65285990010073
9.9897520159947	0.65290843561297
9.9665045877660	0.65295723772512
9.9433651077944	0.65300630861424
9.9203328259431	0.65305565037517
9.8974069990096	0.65310526502128
9.8745868906456	0.65315515448542
9.8518717712783	0.65320532062061
9.8292609180328	0.65325576520099
9.8067536146549	0.65330648992258
9.7843491514360	0.65335749640415
9.7620468251384	0.65340878618806
9.7398459389214	0.65346036074107
9.7177458022690	0.65351222145519
9.6957457309185	0.65356436964857
9.6738450467893	0.65361680656627
9.6520430779137	0.65366953338115
9.6303391583681	0.65372255119472
9.6087326282051	0.65377586103797
9.5872228333866	0.65382946387219
9.5658091257179	0.65388336058989
9.5444908627826	0.65393755201560
9.5232674078780	0.65399203890670
9.5021381299525	0.65404682195434
9.4811024035421	0.65410190178421
9.4601596087094	0.65415727895745
9.4393091309824	0.65421295397148
9.4185503612944	0.65426892726083
9.3978826959248	0.65432519919802
9.3773055364404	0.65438177009440
9.3568182896380	0.65443864020098
9.3364203674868	0.65449580970932
9.3161111870727	0.65455327875233
9.2958901705426	0.65461104740515
9.2757567450495	0.65466911568596
9.2557103426984	0.65472748355690
9.2357504004929	0.65478615092480
9.2158763602828	0.65484511764214
9.1960876687117	0.65490438350781
9.1763837771656	0.65496394826799
9.1567641417227	0.65502381161696
9.1372282231027	0.65508397319795
9.1177754866180	0.65514443260402
9.0984054021244	0.65520518937879
9.0791174439733	0.65526624301738
9.0599110909640	0.65532759296718
9.0407858262967	0.65538923862867
9.0217411375263	0.65545117935628
9.0027765165165	0.65551341445922
8.9838914593947	0.65557594320223
8.9650854665072	0.65563876480650
8.9463580423754	0.65570187845040
8.9277086956522	0.65576528327033
8.9091369390788	0.65582897836154
8.8906422894425	0.65589296277892
8.8722242675348	0.65595723553780
8.8538823981099	0.65602179561477
8.8356162098438	0.65608664194849
8.8174252352941	0.65615177344044
8.7993090108600	0.65621718895575
8.7812670767428	0.65628288732399
8.7632989769073	0.65634886733992
8.7454042590432	0.65641512776435
8.7275824745269	0.65648166732481
8.7098331783847	0.65654848471643
8.6921559292549	0.65661557860265
8.6745502893519	0.65668294761601
8.6570158244297	0.65675059035891
8.6395521037464	0.65681850540437
8.6221587000288	0.65688669129681
8.6048351894374	0.65695514655276
8.5875811515325	0.65702386966165
8.5703961692396	0.65709285908653
8.5532798288160	0.65716211326483
8.5362317198178	0.65723163060907
8.5192514350668	0.65730140950764
8.5023385706183	0.65737144832548
8.4854927257288	0.65744174540481
8.4687135028249	0.65751229906589
8.4520005074711	0.65758310760769
8.4353533483399	0.65765416930863
8.4187716371806	0.65772548242727
8.4022549887892	0.65779704520301
8.3858030209790	0.65786885585681
8.3694153545505	0.65794091259184
8.3530916132627	0.65801321359421
8.3368314238042	0.65808575703362
8.3206344157646	0.65815854106408
8.3045002216066	0.65823156382451
8.2884284766381	0.65830482343949
8.2724188189845	0.65837831801985
8.2564708895621	0.65845204566338
8.2405843320506	0.65852600445546
8.2247587928669	0.65860019246970
8.2089939211391	0.65867460776858
8.1932893686800	0.65874924840412
8.1776447899618	0.65882411241846
8.1620598420909	0.65889919784452
8.1465341847826	0.65897450270662
8.1310674803363	0.65905002502107
8.1156593936113	0.65912576279679
8.1003095920022	0.65920171403593
8.0850177454153	0.65927787673445
8.0697835262450	0.65935424888270
8.0546066093498	0.65943082846604
8.0394866720300	0.65950761346539
8.0244233940043	0.65958460185782
8.0094164573871	0.65966179161711
7.9944655466667	0.65973918071433
7.9795703486825	0.65981676711837
7.9647305526036	0.65989454879652
7.9499458499072	0.65997252371499
7.9352159343568	0.66005068983946
7.9205405019815	0.66012904513563
7.9059192510549	0.66020758756972
7.8913518820742	0.66028631510900
7.8768380977404	0.66036522572231
7.8623776029373	0.66044431738058
7.8479701047120	0.66052358805730
7.8336153122550	0.66060303572904
7.8193129368805	0.66068265837596
7.8050626920073	0.66076245398224
7.7908642931393	0.66084242053662
7.7767174578470	0.66092255603283
7.7626219057483	0.66100285847005
7.7485773584906	0.66108332585342
7.7345835397317	0.66116395619445
7.7206401751223	0.66124474751146
7.7067469922879	0.66132569783005
7.6929037208109	0.66140680518354
7.6791100922131	0.66148806761335
7.6653658399386	0.66156948316948
7.6516706993364	0.66165104991087
7.6380244076433	0.66173276590585
7.6244267039674	0.66181462923253
7.6108773292714	0.66189663797920
7.5973760263558	0.66197879024468
7.5839225398432	0.66206108413877
7.5705166161616	0.66214351778259
7.5571580035291	0.66222608930892
7.5438464519376	0.66230879686263
7.5305817131374	0.66239163860099
7.5173635406219	0.66247461269404
7.5041916896120	0.66255771732491
7.4910659170415	0.66264095069018
7.4779859815415	0.66272431100023
7.4649516434263	0.66280779647950
7.4519626646781	0.66289140536689
7.4390188089330	0.66297513591600
7.4261198414664	0.66305898639547
7.4132655291790	0.66314295508929
7.4004556405826	0.66322704029705
7.3876899457861	0.66331124033428
7.3749682164822	0.66339555353267
7.3622902259332	0.66347997824040
7.3496557489581	0.66356451282236
7.3370645619187	0.66364915566043
7.3245164427071	0.66373390515375
7.3120111707317	0.66381875971893
7.2995485269053	0.66390371779031
7.2871282936315	0.66398877782020
7.2747502547925	0.66407393827909
7.2624141957364	0.66415919765589
7.2501199032648	0.66424455445813
7.2378671656205	0.66433000721218
7.2256557724753	0.66441555446344
7.2134855149182	0.66450119477653
7.2013561854432	0.66458692673551
7.1892675779376	0.66467274894402
7.1772194876706	0.66475866002551
7.1652117112811	0.66484465862334
7.1532440467669	0.66493074340101
7.1413162934731	0.66501691304228
7.1294282520809	0.66510316625133
7.1175797245964	0.66518950175291
7.1057705143399	0.66527591829247
7.0940004259347	0.66536241463631
7.0822692652965	0.66544898957167
7.0705768396226	0.66553564190691
7.0589229573817	0.66562237047155
7.0473074283028	0.66570917411643
7.0357300633654	0.66579605171383
7.0241906747891	0.66588300215748
7.0126890760234	0.66597002436275
7.0012250817375	0.66605711726666
6.9897985078107	0.66614427982801
6.9784091713222	0.66623151102741
6.9670568905415	0.66631880986737
6.9557414849188	0.66640617537238
6.9444627750753	0.66649360658889
6.9332205827937	0.66658110258546
6.9220147310090	0.66666866245272
6.9108450437990	0.66675628530346
6.8997113463751	0.66684397027263
6.8886134650735	0.66693171651737
6.8775512273457	0.66701952321705
6.8665244617499	0.66710738957327
6.8555329979419	0.66719531480987
6.8445766666667	0.66728329817293
6.8336552997493	0.66737133893078
6.8227687300865	0.66745943637399
6.8119167916383	0.66754758981533
6.8010993194192	0.66763579858981
6.7903161494904	0.66772406205459
6.7795671189507	0.66781237958900
6.7688520659291	0.66790075059449
6.7581708295762	0.66798917449458
6.7475232500563	0.66807765073483
6.7369091685393	0.66816617878280
6.7263284271932	0.66825475812797
6.7157808691756	0.66834338828168
6.7052663386267	0.66843206877712
6.6947846806610	0.66852079916917
6.6843357413601	0.66860957903441
6.6739193677649	0.66869840797100
6.6635354078684	0.66878728559860
6.6531837106081	0.66887621155827
6.6428641258586	0.66896518551242
6.6325765044248	0.66905420714467
6.6223206980340	0.66914327615976
6.6120965593295	0.66923239228344
6.6019039418630	0.66932155526237
6.5917427000879	0.66941076486401
6.5816126893524	0.66950002087646
6.5715137658922	0.66958932310838
6.5614457868243	0.66967867138886
6.5514086101399	0.66976806556724
6.5414020946978	0.66985750551302
6.5314261002179	0.66994699111570
6.5214804872743	0.67003652228465
6.5115651172893	0.67012609894893
6.5016798525266	0.67021572105718
6.4918245560849	0.67030538857741
6.4819990918919	0.67039510149689
6.4722033246978	0.67048485982195
6.4624371200690	0.67057466357784
6.4527003443823	0.67066451280853
6.4429928648184	0.67075440757654
6.4333145493562	0.67084434796280
6.4236652667667	0.67093433406640
6.4140448866068	0.67102436600446
6.4044532792138	0.67111444391191
6.3948903156997	0.67120456794133
6.3853558679446	0.67129473826269
6.3758498085921	0.67138495506322
6.3663720110427	0.67147521854720
6.3569223494487	0.67156552893568
6.3475006987084	0.67165588646638
6.3381069344609	0.67174629139339
6.3287409330800	0.67183674398702
6.3194025716695	0.67192724453352
6.3100917280572	0.67201779333492
6.3008082807902	0.67210839070877
6.2915521091291	0.67219903698795
6.2823230930427	0.67228973252038
6.2731211132036	0.67238047766885
6.2639460509820	0.67247127281079
6.2547977884415	0.67256211833796
6.2456762083333	0.67265301465631
6.2365811940919	0.67274396218567
6.2275126298297	0.67283496135955
6.2184704003319	0.67292601262486
6.2094543910522	0.67301711644169
6.2004644881075	0.67310827328308
6.1915005782734	0.67319948363470
6.1825625489792	0.67329074799469
6.1736502883031	0.67338206687332
6.1647636849681	0.67347344079281
6.1559026283368	0.67356487028702
6.1470670084068	0.67365635590120
6.1382567158067	0.67374789819176
6.1294716417910	0.67383949772598
6.1207116782360	0.67393115508176
6.1119767176351	0.67402287084733
6.1032666530945	0.67411464562102
6.0945813783289	0.67420648001099
6.0859207876573	0.67429837463493
6.0772847759984	0.67439033011981
6.0686732388664	0.67448234710162
6.0600860723671	0.67457442622509
6.0515231731934	0.67466656814341
6.0429844386212	0.67475877351796
6.0344697665056	0.67485104301805
6.0259790552764	0.67494337732063
6.0175122039342	0.67503577711002
6.0090691120465	0.67512824307763
6.0006496797438	0.67522077592170
5.9922538077154	0.67531337634700
5.9838813972056	0.67540604506457
5.9755323500100	0.67549878279143
5.9672065684713	0.67559159025031
5.9589039554760	0.67568446816938
5.9506244144502	0.67577741728196
5.9423678493558	0.67587043832622
5.9341341646873	0.67596353204495
5.9259232654675	0.67605669918526
5.9177350572444	0.67614994049829
5.9095694460871	0.67624325673893
5.9014263385827	0.67633664866557
5.8933056418321	0.67643011703980
5.8852072634472	0.67652366262613
5.8771311115468	0.67661728619174
5.8690770947533	0.67671098850616
5.8610451221896	0.67680477034104
5.8530351034752	0.67689863246984
5.8450469487229	0.67699257566756
5.8370805685358	0.67708660071051
5.8291358740035	0.67718070837596
5.8212127766990	0.67727489944194
5.8133111886756	0.67736917468690
5.8054310224632	0.67746353488952
5.7975721910656	0.67755798082837
5.7897346079567	0.67765251328166
5.7819181870781	0.67774713302701
5.7741228428351	0.67784184084112
5.7663484900942	0.67793663749956
5.7585950441798	0.67803152377647
5.7508624208709	0.67812650044432
5.7431505363985	0.67822156827364
5.7354593074421	0.67831672803276
5.7277886511272	0.67841198048754
5.7201384850219	0.67850732640113
5.7125087271341	0.67860276653371
5.7048992959087	0.67869830164224
5.6973101102242	0.67879393248019
5.6897410893908	0.67888965979732
5.6821921531463	0.67898548433939
5.6746632216544	0.67908140684795
5.6671542155009	0.67917742806009
5.6596650556919	0.67927354870817
5.6521956636501	0.67936976951961
5.6447459612126	0.67946609121664
5.6373158706281	0.67956251451606
5.6299053145540	0.67965904012899
5.6225142160540	0.67975566876069
5.6151424985952	0.67985240111026
5.6077900860456	0.67994923787046
5.6004569026714	0.68004617972748
5.5931428731343	0.68014322736068
5.5858479224893	0.68024038144242
5.5785719761816	0.68033764263781
5.5713149600446	0.68043501160451
5.5640768002970	0.68053248899247
5.5568574235403	0.68063007544381
5.5496567567568	0.68072777159251
5.5424747273063	0.68082557806428
5.5353112629247	0.68092349547632
5.5281662917204	0.68102152443713
5.5210397421731	0.68111966554632
5.5139315431304	0.68121791939438
5.5068416238060	0.68131628656253
5.4997699137773	0.68141476762253
5.4927163429828	0.68151336313646
5.4856808417200	0.68161207365655
5.4786633406433	0.68171089972502
5.4716637707611	0.68180984187389
5.4646820634342	0.68190890062479
5.4577181503732	0.68200807648881
5.4507719636364	0.68210736996634
5.4438434356274	0.68220678154687
5.4369324990932	0.68230631170886
5.4300390871219	0.68240596091956
5.4231631331404	0.68250572963489
5.4163045709124	0.68260561829924
5.4094633345363	0.68270562734535
5.4026393584430	0.68280575719418
5.3958325773938	0.68290600825473
5.3890429264785	0.68300638092392
5.3822703411131	0.68310687558648
5.3755147570378	0.68320749261476
5.3687761103152	0.68330823236866
5.3620543373278	0.68340909519549
5.3553493747767	0.68351008142981
5.3486611596789	0.68361119139338
5.3419896293656	0.68371242539499
5.3353347214807	0.68381378373037
5.3286963739780	0.68391526668209
5.3220745251198	0.68401687451946
5.3154691134752	0.68411860749841
5.3088800779175	0.68422046586140
5.3023073576229	0.68432244983735
5.2957508920685	0.68442455964153
5.2892106210303	0.68452679547548
5.2826864845815	0.68462915752694
5.2761784230905	0.68473164596975
5.2696863772192	0.68483426096380
5.2632102879213	0.68493700265495
5.2567500964405	0.68503987117497
5.2503057443082	0.68514286664147
5.2438771733427	0.68524598915786
5.2374643256464	0.68534923881327
5.2310671436050	0.68545261568250
5.2246855698850	0.68555611982602
5.2183195474326	0.68565975128986
5.2119690194715	0.68576351010563
5.2056339295016	0.68586739629046
5.1993142212973	0.68597140984695
5.1930098389052	0.68607555076318
5.1867207266436	0.68617981901266
5.1804468290997	0.68628421455433
5.1741880911288	0.68638873733253
5.1679444578521	0.68649338727701
5.1617158746556	0.68659816430287
5.1555022871883	0.68670306831064
5.1493036413604	0.68680809918620
5.1431198833419	0.68691325680084
5.1369509595613	0.68701854101123
5.1307968167037	0.68712395165946
5.1246574017094	0.68722948857305
5.1185326617722	0.68733515156496
5.1124225443383	0.68744094043361
5.1063269971044	0.68754685496293
5.1002459680163	0.68765289492239
5.0941794052676	0.68775906006700
5.0881272572980	0.68786535013739
5.0820894727920	0.68797176485984
5.0760660006773	0.68807830394631
5.0700567901235	0.68818496709454
5.0640617905405	0.68829175398803
5.0580809515775	0.68839866429617
5.0521142231210	0.68850569767427
5.0461615552937	0.68861285376362
5.0402228984533	0.68872013219158
5.0342982031906	0.68882753257164
5.0283874203287	0.68893505450351
5.0224905009214	0.68904269757319
5.0166073962517	0.68915046135305
5.0107380578305	0.68925834540195
5.0048824373957	0.68936634926530
4.9990404869101	0.68947447247517
4.9932121585610	0.68958271455038
4.9873974047579	0.68969107499664
4.9815961781323	0.68979955330661
4.9758084315353	0.68990814896002
4.9700341180371	0.69001686142383
4.9642731909256	0.69012569015228
4.9585256037049	0.69023463458709
4.9527913100942	0.69034369415750
4.9470702640264	0.69045286828046
4.9413624196473	0.69056215636074
4.9356677313138	0.69067155779109
4.9299861535932	0.69078107195232
4.9243176412615	0.69089069821352
4.9186621493027	0.69100043593215
4.9130196329072	0.69111028445420
4.9073900474709	0.69122024311436
4.9017733485939	0.69133031123618
4.8961694920790	0.69144048813218
4.8905784339315	0.69155077310408
4.8850001303569	0.69166116544293
4.8794345377604	0.69177166442925
4.8738816127459	0.69188226933328
4.8683413121143	0.69199297941508
4.8628135928629	0.69210379392474
4.8572984121841	0.69221471210256
4.8517957274640	0.69232573317925
4.8463054962819	0.69243685637606
4.8408276764088	0.69254808090505
4.8353622258065	0.69265940596921
