#Parameters = {thARC=0.2; nARC=1.5; thsub=1; p=1; nSub=4}
#"Wavelength / um"	"T (662) [Real Part]"
#---------------------------------------
14.989622900000	0.64309067399017
14.937342202292	0.64314737860142
14.885424925521	0.64320313218442
14.833867293419	0.64325794932041
14.782665581854	0.64331184450887
14.731816117936	0.64336483216664
14.681315279138	0.64341692662707
14.631159492435	0.64346814213921
14.581345233463	0.64351849286697
14.531869025691	0.64356799288837
14.482727439614	0.64361665619473
14.433917091960	0.64366449668998
14.385434644914	0.64371152818986
14.337276805356	0.64375776442129
14.289440324118	0.64380321902162
14.241921995249	0.64384790553800
14.194718655303	0.64389183742670
14.147827182633	0.64393502805254
14.101244496707	0.64397749068820
14.054967557431	0.64401923851372
14.008993364486	0.64406028461584
13.963318956684	0.64410064198753
13.917941411328	0.64414032352741
13.872857843591	0.64417934203925
13.828065405904	0.64421771023147
13.783561287356	0.64425544071669
13.739342713107	0.64429254601123
13.695406943810	0.64432903853471
13.651751275046	0.64436493060961
13.608373036768	0.64440023446089
13.565269592760	0.64443496221557
13.522438340099	0.64446912590238
13.479876708633	0.64450273745144
13.437582160466	0.64453580869388
13.395552189455	0.64456835136156
13.353784320713	0.64460037708676
13.312276110124	0.64463189740191
13.271025143869	0.64466292373931
13.230029037952	0.64469346743091
13.189285437747	0.64472353970806
13.148792017544	0.64475315170129
13.108546480105	0.64478231444017
13.068546556234	0.64481103885303
13.028790004346	0.64483933576691
12.989274610052	0.64486721590732
12.949998185745	0.64489468989816
12.910958570198	0.64492176826158
12.872153628167	0.64494846141788
12.833581250000	0.64497477968544
12.795239351259	0.64500073328063
12.757125872340	0.64502633231776
12.719238778108	0.64505158680904
12.681576057530	0.64507650666457
12.644135723323	0.64510110169227
12.606915811606	0.64512538159794
12.569914381551	0.64514935598528
12.533129515050	0.64517303435585
12.496559316382	0.64519642610919
12.460201911887	0.64521954054284
12.424055449648	0.64524238685239
12.388118099174	0.64526497413163
12.352388051092	0.64528731137257
12.316863516845	0.64530940746559
12.281542728390	0.64533127119956
12.246423937908	0.64535291126198
12.211505417515	0.64537433623910
12.176785458976	0.64539555461610
12.142262373431	0.64541657477725
12.107934491115	0.64543740500612
12.073800161095	0.64545805348573
12.039857751004	0.64547852829880
12.006105646776	0.64549883742793
11.972542252396	0.64551898875587
11.939165989646	0.64553899006572
11.905975297855	0.64555884904120
11.872968633663	0.64557857326691
11.840144470774	0.64559817022861
11.807501299724	0.64561764731348
11.775037627651	0.64563701181045
11.742751978065	0.64565627091045
11.710642890625	0.64567543170677
11.678708920919	0.64569450119538
11.646948640249	0.64571348627521
11.615360635413	0.64573239374856
11.583943508501	0.64575123032142
11.552695876686	0.64577000260382
11.521616372022	0.64578871711020
11.490703641242	0.64580738025982
11.459956345566	0.64582599837710
11.429373160503	0.64584457769207
11.398952775665	0.64586312434071
11.368693894577	0.64588164436541
11.338595234493	0.64590014371538
11.308655526217	0.64591862824704
11.278873513920	0.64593710372453
11.249247954972	0.64595557582007
11.219777619760	0.64597405011447
11.190461291527	0.64599253209756
11.161297766195	0.64601102716866
11.132285852209	0.64602954063706
11.103424370370	0.64604807772248
11.074712153676	0.64606664355558
11.046148047163	0.64608524317841
11.017730907755	0.64610388154497
10.989459604106	0.64612256352167
10.961333016453	0.64614129388784
10.933350036470	0.64616007733626
10.905509567115	0.64617891847369
10.877810522496	0.64619782182139
10.850251827723	0.64621679181563
10.822832418773	0.64623583280828
10.795551242348	0.64625494906730
10.768407255747	0.64627414477732
10.741399426729	0.64629342404021
10.714526733381	0.64631279087560
10.687788163993	0.64633224922146
10.661182716927	0.64635180293468
10.634709400497	0.64637145579165
10.608367232838	0.64639121148878
10.582155241793	0.64641107364318
10.556072464789	0.64643104579316
10.530117948718	0.64645113139885
10.504290749825	0.64647133384280
10.478589933590	0.64649165643060
10.453014574616	0.64651210239141
10.427563756522	0.64653267487866
10.402236571825	0.64655337697056
10.377032121841	0.64657421167079
10.351949516575	0.64659518190909
10.326987874612	0.64661629054186
10.302146323024	0.64663754035280
10.277423997257	0.64665893405352
10.252820041040	0.64668047428419
10.228333606278	0.64670216361414
10.203963852961	0.64672400454252
10.179709949066	0.64674599949890
10.155571070461	0.64676815084393
10.131546400811	0.64679046086999
10.107635131490	0.64681293180180
10.083836461487	0.64683556579708
10.060149597315	0.64685836494718
10.036573752929	0.64688133127774
10.013108149633	0.64690446674935
9.9897520159947	0.64692777325816
9.9665045877660	0.64695125263657
9.9433651077944	0.64697490665385
9.9203328259431	0.64699873701681
9.8974069990096	0.64702274537046
9.8745868906456	0.64704693329866
9.8518717712783	0.64707130232475
9.8292609180328	0.64709585391225
9.8067536146549	0.64712058946549
9.7843491514360	0.64714551033027
9.7620468251384	0.64717061779454
9.7398459389214	0.64719591308903
9.7177458022690	0.64722139738793
9.6957457309185	0.64724707180954
9.6738450467893	0.64727293741694
9.6520430779137	0.64729899521862
9.6303391583681	0.64732524616920
9.6087326282051	0.64735169117003
9.5872228333866	0.64737833106988
9.5658091257179	0.64740516666561
9.5444908627826	0.64743219870278
9.5232674078780	0.64745942787638
9.5021381299525	0.64748685483143
9.4811024035421	0.64751448016368
9.4601596087094	0.64754230442022
9.4393091309824	0.64757032810019
9.4185503612944	0.64759855165539
9.3978826959248	0.64762697549099
9.3773055364404	0.64765559996612
9.3568182896380	0.64768442539456
9.3364203674868	0.64771345204540
9.3161111870727	0.64774268014366
9.2958901705426	0.64777210987097
9.2757567450495	0.64780174136621
9.2557103426984	0.64783157472614
9.2357504004929	0.64786161000606
9.2158763602828	0.64789184722047
9.1960876687117	0.64792228634367
9.1763837771656	0.64795292731046
9.1567641417227	0.64798377001673
9.1372282231027	0.64801481432009
9.1177754866180	0.64804606004058
9.0984054021244	0.64807750696122
9.0791174439733	0.64810915482867
9.0599110909640	0.64814100335390
9.0407858262967	0.64817305221275
9.0217411375263	0.64820530104661
9.0027765165165	0.64823774946301
8.9838914593947	0.64827039703627
8.9650854665072	0.64830324330808
8.9463580423754	0.64833628778816
8.9277086956522	0.64836952995484
8.9091369390788	0.64840296925569
8.8906422894425	0.64843660510814
8.8722242675348	0.64847043690003
8.8538823981099	0.64850446399030
8.8356162098438	0.64853868570952
8.8174252352941	0.64857310136052
8.7993090108600	0.64860771021897
8.7812670767428	0.64864251153401
8.7632989769073	0.64867750452877
8.7454042590432	0.64871268840103
8.7275824745269	0.64874806232377
8.7098331783847	0.64878362544574
8.6921559292549	0.64881937689206
8.6745502893519	0.64885531576479
8.6570158244297	0.64889144114347
8.6395521037464	0.64892775208575
8.6221587000288	0.64896424762790
8.6048351894374	0.64900092678539
8.5875811515325	0.64903778855347
8.5703961692396	0.64907483190766
8.5532798288160	0.64911205580440
8.5362317198178	0.64914945918150
8.5192514350668	0.64918704095874
8.5023385706183	0.64922480003841
8.4854927257288	0.64926273530581
8.4687135028249	0.64930084562984
8.4520005074711	0.64933912986346
8.4353533483399	0.64937758684429
8.4187716371806	0.64941621539507
8.4022549887892	0.64945501432421
8.3858030209790	0.64949398242632
8.3694153545505	0.64953311848266
8.3530916132627	0.64957242126171
8.3368314238042	0.64961188951966
8.3206344157646	0.64965152200088
8.3045002216066	0.64969131743844
8.2884284766381	0.64973127455460
8.2724188189845	0.64977139206126
8.2564708895621	0.64981166866052
8.2405843320506	0.64985210304509
8.2247587928669	0.64989269389878
8.2089939211391	0.64993343989698
8.1932893686800	0.64997433970714
8.1776447899618	0.65001539198920
8.1620598420909	0.65005659539607
8.1465341847826	0.65009794857407
8.1310674803363	0.65013945016340
8.1156593936113	0.65018109879854
8.1003095920022	0.65022289310877
8.0850177454153	0.65026483171851
8.0697835262450	0.65030691324783
8.0546066093498	0.65034913631283
8.0394866720300	0.65039149952609
8.0244233940043	0.65043400149708
8.0094164573871	0.65047664083255
7.9944655466667	0.65051941613699
7.9795703486825	0.65056232601298
7.9647305526036	0.65060536906165
7.9499458499072	0.65064854388301
7.9352159343568	0.65069184907639
7.9205405019815	0.65073528324081
7.9059192510549	0.65077884497537
7.8913518820742	0.65082253287961
7.8768380977404	0.65086634555389
7.8623776029373	0.65091028159979
7.8479701047120	0.65095433962041
7.8336153122550	0.65099851822079
7.8193129368805	0.65104281600823
7.8050626920073	0.65108723159265
7.7908642931393	0.65113176358695
7.7767174578470	0.65117641060732
7.7626219057483	0.65122117127358
7.7485773584906	0.65126604420955
7.7345835397317	0.65131102804333
7.7206401751223	0.65135612140764
7.7067469922879	0.65140132294015
7.6929037208109	0.65144663128376
7.6791100922131	0.65149204508694
7.6653658399386	0.65153756300402
7.6516706993364	0.65158318369547
7.6380244076433	0.65162890582822
7.6244267039674	0.65167472807594
7.6108773292714	0.65172064911933
7.5973760263558	0.65176666764636
7.5839225398432	0.65181278235261
7.5705166161616	0.65185899194149
7.5571580035291	0.65190529512450
7.5438464519376	0.65195169062153
7.5305817131374	0.65199817716109
7.5173635406219	0.65204475348055
7.5041916896120	0.65209141832642
7.4910659170415	0.65213817045454
7.4779859815415	0.65218500863038
7.4649516434263	0.65223193162920
7.4519626646781	0.65227893823633
7.4390188089330	0.65232602724738
7.4261198414664	0.65237319746845
7.4132655291790	0.65242044771633
7.4004556405826	0.65246777681872
7.3876899457861	0.65251518361446
7.3749682164822	0.65256266695367
7.3622902259332	0.65261022569800
7.3496557489581	0.65265785872077
7.3370645619187	0.65270556490720
7.3245164427071	0.65275334315455
7.3120111707317	0.65280119237232
7.2995485269053	0.65284911148241
7.2871282936315	0.65289709941928
7.2747502547925	0.65294515513013
7.2624141957364	0.65299327757504
7.2501199032648	0.65304146572712
7.2378671656205	0.65308971857266
7.2256557724753	0.65313803511128
7.2134855149182	0.65318641435607
7.2013561854432	0.65323485533369
7.1892675779376	0.65328335708455
7.1772194876706	0.65333191866290
7.1652117112811	0.65338053913694
7.1532440467669	0.65342921758899
7.1413162934731	0.65347795311553
7.1294282520809	0.65352674482736
7.1175797245964	0.65357559184967
7.1057705143399	0.65362449332215
7.0940004259347	0.65367344839909
7.0822692652965	0.65372245624946
7.0705768396226	0.65377151605699
7.0589229573817	0.65382062702026
7.0473074283028	0.65386978835277
7.0357300633654	0.65391899928301
7.0241906747891	0.65396825905454
7.0126890760234	0.65401756692603
7.0012250817375	0.65406692217133
6.9897985078107	0.65411632407955
6.9784091713222	0.65416577195506
6.9670568905415	0.65421526511756
6.9557414849188	0.65426480290216
6.9444627750753	0.65431438465936
6.9332205827937	0.65436400975509
6.9220147310090	0.65441367757078
6.9108450437990	0.65446338750337
6.8997113463751	0.65451313896531
6.8886134650735	0.65456293138459
6.8775512273457	0.65461276420476
6.8665244617499	0.65466263688495
6.8555329979419	0.65471254889985
6.8445766666667	0.65476249973973
6.8336552997493	0.65481248891044
6.8227687300865	0.65486251593340
6.8119167916383	0.65491258034557
6.8010993194192	0.65496268169948
6.7903161494904	0.65501281956320
6.7795671189507	0.65506299352029
6.7688520659291	0.65511320316981
6.7581708295762	0.65516344812628
6.7475232500563	0.65521372801966
6.7369091685393	0.65526404249529
6.7263284271932	0.65531439121388
6.7157808691756	0.65536477385146
6.7052663386267	0.65541519009933
6.6947846806610	0.65546563966402
6.6843357413601	0.65551612226723
6.6739193677649	0.65556663764578
6.6635354078684	0.65561718555156
6.6531837106081	0.65566776575146
6.6428641258586	0.65571837802731
6.6325765044248	0.65576902217578
6.6223206980340	0.65581969800839
6.6120965593295	0.65587040535134
6.6019039418630	0.65592114404551
6.5917427000879	0.65597191394633
6.5816126893524	0.65602271492373
6.5715137658922	0.65607354686203
6.5614457868243	0.65612440965987
6.5514086101399	0.65617530323012
6.5414020946978	0.65622622749974
6.5314261002179	0.65627718240976
6.5214804872743	0.65632816791513
6.5115651172893	0.65637918398460
6.5016798525266	0.65643023060069
6.4918245560849	0.65648130775949
6.4819990918919	0.65653241547063
6.4722033246978	0.65658355375710
6.4624371200690	0.65663472265518
6.4527003443823	0.65668592221431
6.4429928648184	0.65673715249697
6.4333145493562	0.65678841357855
6.4236652667667	0.65683970554722
6.4140448866068	0.65689102850383
6.4044532792138	0.65694238256175
6.3948903156997	0.65699376784677
6.3853558679446	0.65704518449691
6.3758498085921	0.65709663266237
6.3663720110427	0.65714811250530
6.3569223494487	0.65719962419972
6.3475006987084	0.65725116793136
6.3381069344609	0.65730274389752
6.3287409330800	0.65735435230692
6.3194025716695	0.65740599337953
6.3100917280572	0.65745766734647
6.3008082807902	0.65750937444982
6.2915521091291	0.65756111494248
6.2823230930427	0.65761288908799
6.2731211132036	0.65766469716042
6.2639460509820	0.65771653944419
6.2547977884415	0.65776841623388
6.2456762083333	0.65782032783412
6.2365811940919	0.65787227455939
6.2275126298297	0.65792425673386
6.2184704003319	0.65797627469126
6.2094543910522	0.65802832877465
6.2004644881075	0.65808041933631
6.1915005782734	0.65813254673754
6.1825625489792	0.65818471134850
6.1736502883031	0.65823691354801
6.1647636849681	0.65828915372343
6.1559026283368	0.65834143227044
6.1470670084068	0.65839374959288
6.1382567158067	0.65844610610258
6.1294716417910	0.65849850221917
6.1207116782360	0.65855093836991
6.1119767176351	0.65860341498951
6.1032666530945	0.65865593251995
6.0945813783289	0.65870849141029
6.0859207876573	0.65876109211650
6.0772847759984	0.65881373510127
6.0686732388664	0.65886642083384
6.0600860723671	0.65891914978981
6.0515231731934	0.65897192245094
6.0429844386212	0.65902473930497
6.0344697665056	0.65907760084547
6.0259790552764	0.65913050757162
6.0175122039342	0.65918345998801
6.0090691120465	0.65923645860450
6.0006496797438	0.65928950393599
5.9922538077154	0.65934259650227
5.9838813972056	0.65939573682780
5.9755323500100	0.65944892544155
5.9672065684713	0.65950216287678
5.9589039554760	0.65955544967088
5.9506244144502	0.65960878636519
5.9423678493558	0.65966217350477
5.9341341646873	0.65971561163825
5.9259232654675	0.65976910131765
5.9177350572444	0.65982264309813
5.9095694460871	0.65987623753789
5.9014263385827	0.65992988519790
5.8933056418321	0.65998358664179
5.8852072634472	0.66003734243560
5.8771311115468	0.66009115314761
5.8690770947533	0.66014501934819
5.8610451221896	0.66019894160957
5.8530351034752	0.66025292050566
5.8450469487229	0.66030695661190
5.8370805685358	0.66036105050504
5.8291358740035	0.66041520276297
5.8212127766990	0.66046941396452
5.8133111886756	0.66052368468932
5.8054310224632	0.66057801551757
5.7975721910656	0.66063240702987
5.7897346079567	0.66068685980708
5.7819181870781	0.66074137443008
5.7741228428351	0.66079595147963
5.7663484900942	0.66085059153618
5.7585950441798	0.66090529517969
5.7508624208709	0.66096006298946
5.7431505363985	0.66101489554395
5.7354593074421	0.66106979342062
5.7277886511272	0.66112475719572
5.7201384850219	0.66117978744416
5.7125087271341	0.66123488473931
5.7048992959087	0.66129004965284
5.6973101102242	0.66134528275456
5.6897410893908	0.66140058461224
5.6821921531463	0.66145595579143
5.6746632216544	0.66151139685534
5.6671542155009	0.66156690836461
5.6596650556919	0.66162249087721
5.6521956636501	0.66167814494825
5.6447459612126	0.66173387112981
5.6373158706281	0.66178966997080
5.6299053145540	0.66184554201680
5.6225142160540	0.66190148780989
5.6151424985952	0.66195750788853
5.6077900860456	0.66201360278734
5.6004569026714	0.66206977303703
5.5931428731343	0.66212601916420
5.5858479224893	0.66218234169120
5.5785719761816	0.66223874113600
5.5713149600446	0.66229521801202
5.5640768002970	0.66235177282801
5.5568574235403	0.66240840608789
5.5496567567568	0.66246511829063
5.5424747273063	0.66252190993009
5.5353112629247	0.66257878149492
5.5281662917204	0.66263573346838
5.5210397421731	0.66269276632822
5.5139315431304	0.66274988054661
5.5068416238060	0.66280707658990
5.4997699137773	0.66286435491859
5.4927163429828	0.66292171598718
5.4856808417200	0.66297916024400
5.4786633406433	0.66303668813117
5.4716637707611	0.66309430008441
5.4646820634342	0.66315199653297
5.4577181503732	0.66320977789948
5.4507719636364	0.66326764459988
5.4438434356274	0.66332559704326
5.4369324990932	0.66338363563181
5.4300390871219	0.66344176076066
5.4231631331404	0.66349997281779
5.4163045709124	0.66355827218398
5.4094633345363	0.66361665923261
5.4026393584430	0.66367513432967
5.3958325773938	0.66373369783359
5.3890429264785	0.66379235009518
5.3822703411131	0.66385109145754
5.3755147570378	0.66390992225597
5.3687761103152	0.66396884281785
5.3620543373278	0.66402785346262
5.3553493747767	0.66408695450166
5.3486611596789	0.66414614623820
5.3419896293656	0.66420542896728
5.3353347214807	0.66426480297564
5.3286963739780	0.66432426854169
5.3220745251198	0.66438382593540
5.3154691134752	0.66444347541825
5.3088800779175	0.66450321724316
5.3023073576229	0.66456305165447
5.2957508920685	0.66462297888780
5.2892106210303	0.66468299917006
5.2826864845815	0.66474311271938
5.2761784230905	0.66480331974504
5.2696863772192	0.66486362044744
5.2632102879213	0.66492401501805
5.2567500964405	0.66498450363935
5.2503057443082	0.66504508648481
5.2438771733427	0.66510576371884
5.2374643256464	0.66516653549676
5.2310671436050	0.66522740196474
5.2246855698850	0.66528836325981
5.2183195474326	0.66534941950981
5.2119690194715	0.66541057083335
5.2056339295016	0.66547181733981
5.1993142212973	0.66553315912929
5.1930098389052	0.66559459629263
5.1867207266436	0.66565612891138
5.1804468290997	0.66571775705774
5.1741880911288	0.66577948079463
5.1679444578521	0.66584130017563
5.1617158746556	0.66590321524496
5.1555022871883	0.66596522603752
5.1493036413604	0.66602733257888
5.1431198833419	0.66608953488525
5.1369509595613	0.66615183296352
5.1307968167037	0.66621422681125
5.1246574017094	0.66627671641668
5.1185326617722	0.66633930175874
5.1124225443383	0.66640198280709
5.1063269971044	0.66646475952209
5.1002459680163	0.66652763185486
5.0941794052676	0.66659059974730
5.0881272572980	0.66665366313208
5.0820894727920	0.66671682193270
5.0760660006773	0.66678007606353
5.0700567901235	0.66684342542980
5.0640617905405	0.66690686992766
5.0580809515775	0.66697040944423
5.0521142231210	0.66703404385762
5.0461615552937	0.66709777303699
5.0402228984533	0.66716159684255
5.0342982031906	0.66722551512568
5.0283874203287	0.66728952772893
5.0224905009214	0.66735363448608
5.0166073962517	0.66741783522219
5.0107380578305	0.66748212975369
5.0048824373957	0.66754651788839
4.9990404869101	0.66761099942560
4.9932121585610	0.66767557415614
4.9873974047579	0.66774024186243
4.9815961781323	0.66780500231857
4.9758084315353	0.66786985529039
4.9700341180371	0.66793480053556
4.9642731909256	0.66799983780362
4.9585256037049	0.66806496683608
4.9527913100942	0.66813018736651
4.9470702640264	0.66819549912062
4.9413624196473	0.66826090181633
4.9356677313138	0.66832639516387
4.9299861535932	0.66839197886589
4.9243176412615	0.66845765261750
4.9186621493027	0.66852341610641
4.9130196329072	0.66858926901302
4.9073900474709	0.66865521101050
4.9017733485939	0.66872124176490
4.8961694920790	0.66878736093528
4.8905784339315	0.66885356817376
4.8850001303569	0.66891986312567
4.8794345377604	0.66898624542965
4.8738816127459	0.66905271471776
4.8683413121143	0.66911927061559
4.8628135928629	0.66918591274237
4.8572984121841	0.66925264071110
4.8517957274640	0.66931945412868
4.8463054962819	0.66938635259598
4.8408276764088	0.66945333570803
4.8353622258065	0.66952040305410
