#Parameters = {thARC=0.2; nARC=2; thsub=1; p=1; nSub=4}
#"Wavelength / um"	"T (674) [Real Part]"
#---------------------------------------
14.989622900000	0.64648115624750
14.937342202292	0.64656367297440
14.885424925521	0.64664525586959
14.833867293419	0.64672592044301
14.782665581854	0.64680568212143
14.731816117936	0.64688455624740
14.681315279138	0.64696255807830
14.631159492435	0.64703970278533
14.581345233463	0.64711600545257
14.531869025691	0.64719148107605
14.482727439614	0.64726614456287
14.433917091960	0.64734001073027
14.385434644914	0.64741309430479
14.337276805356	0.64748540992144
14.289440324118	0.64755697212288
14.241921995249	0.64762779535859
14.194718655303	0.64769789398414
14.147827182633	0.64776728226043
14.101244496707	0.64783597435292
14.054967557431	0.64790398433098
14.008993364486	0.64797132616714
13.963318956684	0.64803801373646
13.917941411328	0.64810406081590
13.872857843591	0.64816948108363
13.828065405904	0.64823428811850
13.783561287356	0.64829849539940
13.739342713107	0.64836211630474
13.695406943810	0.64842516411185
13.651751275046	0.64848765199653
13.608373036768	0.64854959303249
13.565269592760	0.64861100019090
13.522438340099	0.64867188633989
13.479876708633	0.64873226424416
13.437582160466	0.64879214656452
13.395552189455	0.64885154585748
13.353784320713	0.64891047457489
13.312276110124	0.64896894506357
13.271025143869	0.64902696956494
13.230029037952	0.64908456021471
13.189285437747	0.64914172904259
13.148792017544	0.64919848797195
13.108546480105	0.64925484881958
13.068546556234	0.64931082329544
13.028790004346	0.64936642300240
12.989274610052	0.64942165943605
12.949998185745	0.64947654398447
12.910958570198	0.64953108792804
12.872153628167	0.64958530243933
12.833581250000	0.64963919858288
12.795239351259	0.64969278731511
12.757125872340	0.64974607948418
12.719238778108	0.64979908582994
12.681576057530	0.64985181698375
12.644135723323	0.64990428346853
12.606915811606	0.64995649569862
12.569914381551	0.65000846397977
12.533129515050	0.65006019850915
12.496559316382	0.65011170937531
12.460201911887	0.65016300655820
12.424055449648	0.65021409992922
12.388118099174	0.65026499925122
12.352388051092	0.65031571417860
12.316863516845	0.65036625425733
12.281542728390	0.65041662892509
12.246423937908	0.65046684751134
12.211505417515	0.65051691923743
12.176785458976	0.65056685321674
12.142262373431	0.65061665845481
12.107934491115	0.65066634384951
12.073800161095	0.65071591819119
12.039857751004	0.65076539016287
12.006105646776	0.65081476834043
11.972542252396	0.65086406119284
11.939165989646	0.65091327708234
11.905975297855	0.65096242426468
11.872968633663	0.65101151088941
11.840144470774	0.65106054500007
11.807501299724	0.65110953453450
11.775037627651	0.65115848732511
11.742751978065	0.65120741109917
11.710642890625	0.65125631347910
11.678708920919	0.65130520198282
11.646948640249	0.65135408402402
11.615360635413	0.65140296691256
11.583943508501	0.65145185785475
11.552695876686	0.65150076395376
11.521616372022	0.65154969220995
11.490703641242	0.65159864952127
11.459956345566	0.65164764268364
11.429373160503	0.65169667839135
11.398952775665	0.65174576323745
11.368693894577	0.65179490371418
11.338595234493	0.65184410621342
11.308655526217	0.65189337702705
11.278873513920	0.65194272234747
11.249247954972	0.65199214826803
11.219777619760	0.65204166078346
11.190461291527	0.65209126579038
11.161297766195	0.65214096908773
11.132285852209	0.65219077637731
11.103424370370	0.65224069326425
11.074712153676	0.65229072525749
11.046148047163	0.65234087777031
11.017730907755	0.65239115612085
10.989459604106	0.65244156553262
10.961333016453	0.65249211113504
10.933350036470	0.65254279796397
10.905509567115	0.65259363096226
10.877810522496	0.65264461498029
10.850251827723	0.65269575477656
10.822832418773	0.65274705501821
10.795551242348	0.65279852028162
10.768407255747	0.65285015505298
10.741399426729	0.65290196372885
10.714526733381	0.65295395061680
10.687788163993	0.65300611993594
10.661182716927	0.65305847581757
10.634709400497	0.65311102230576
10.608367232838	0.65316376335797
10.582155241793	0.65321670284565
10.556072464789	0.65326984455486
10.530117948718	0.65332319218694
10.504290749825	0.65337674935908
10.478589933590	0.65343051960496
10.453014574616	0.65348450637543
10.427563756522	0.65353871303913
10.402236571825	0.65359314288312
10.377032121841	0.65364779911355
10.351949516575	0.65370268485631
10.326987874612	0.65375780315769
10.302146323024	0.65381315698502
10.277423997257	0.65386874922738
10.252820041040	0.65392458269623
10.228333606278	0.65398066012609
10.203963852961	0.65403698417522
10.179709949066	0.65409355742631
10.155571070461	0.65415038238713
10.131546400811	0.65420746149124
10.107635131490	0.65426479709866
10.083836461487	0.65432239149657
10.060149597315	0.65438024689999
10.036573752929	0.65443836545249
10.013108149633	0.65449674922685
9.9897520159947	0.65455540022581
9.9665045877660	0.65461432038273
9.9433651077944	0.65467351156228
9.9203328259431	0.65473297556119
9.8974069990096	0.65479271410893
9.8745868906456	0.65485272886838
9.8518717712783	0.65491302143661
9.8292609180328	0.65497359334551
9.8067536146549	0.65503444606258
9.7843491514360	0.65509558099157
9.7620468251384	0.65515699947322
9.7398459389214	0.65521870278598
9.7177458022690	0.65528069214672
9.6957457309185	0.65534296871143
9.6738450467893	0.65540553357594
9.6520430779137	0.65546838777665
9.6303391583681	0.65553153229122
9.6087326282051	0.65559496803930
9.5872228333866	0.65565869588326
9.5658091257179	0.65572271662885
9.5444908627826	0.65578703102600
9.5232674078780	0.65585163976945
9.5021381299525	0.65591654349952
9.4811024035421	0.65598174280283
9.4601596087094	0.65604723821295
9.4393091309824	0.65611303021119
9.4185503612944	0.65617911922726
9.3978826959248	0.65624550564002
9.3773055364404	0.65631218977817
9.3568182896380	0.65637917192095
9.3364203674868	0.65644645229889
9.3161111870727	0.65651403109448
9.2958901705426	0.65658190844290
9.2757567450495	0.65665008443271
9.2557103426984	0.65671855910658
9.2357504004929	0.65678733246197
9.2158763602828	0.65685640445184
9.1960876687117	0.65692577498538
9.1763837771656	0.65699544392865
9.1567641417227	0.65706541110533
9.1372282231027	0.65713567629740
9.1177754866180	0.65720623924584
9.0984054021244	0.65727709965131
9.0791174439733	0.65734825717485
9.0599110909640	0.65741971143857
9.0407858262967	0.65749146202634
9.0217411375263	0.65756350848445
9.0027765165165	0.65763585032234
8.9838914593947	0.65770848701324
8.9650854665072	0.65778141799487
8.9463580423754	0.65785464267009
8.9277086956522	0.65792816040761
8.9091369390788	0.65800197054265
8.8906422894425	0.65807607237757
8.8722242675348	0.65815046518259
8.8538823981099	0.65822514819642
8.8356162098438	0.65830012062694
8.8174252352941	0.65837538165184
8.7993090108600	0.65845093041927
8.7812670767428	0.65852676604853
8.7632989769073	0.65860288763067
8.7454042590432	0.65867929422916
8.7275824745269	0.65875598488054
8.7098331783847	0.65883295859504
8.6921559292549	0.65891021435723
8.6745502893519	0.65898775112665
8.6570158244297	0.65906556783842
8.6395521037464	0.65914366340390
8.6221587000288	0.65922203671131
8.6048351894374	0.65930068662629
8.5875811515325	0.65937961199260
8.5703961692396	0.65945881163268
8.5532798288160	0.65953828434827
8.5362317198178	0.65961802892102
8.5192514350668	0.65969804411308
8.5023385706183	0.65977832866770
8.4854927257288	0.65985888130984
8.4687135028249	0.65993970074675
8.4520005074711	0.66002078566852
8.4353533483399	0.66010213474874
8.4187716371806	0.66018374664499
8.4022549887892	0.66026561999949
8.3858030209790	0.66034775343960
8.3694153545505	0.66043014557844
8.3530916132627	0.66051279501544
8.3368314238042	0.66059570033688
8.3206344157646	0.66067886011643
8.3045002216066	0.66076227291575
8.2884284766381	0.66084593728500
8.2724188189845	0.66092985176335
8.2564708895621	0.66101401487960
8.2405843320506	0.66109842515263
8.2247587928669	0.66118308109196
8.2089939211391	0.66126798119826
8.1932893686800	0.66135312396391
8.1776447899618	0.66143850787344
8.1620598420909	0.66152413140411
8.1465341847826	0.66160999302635
8.1310674803363	0.66169609120433
8.1156593936113	0.66178242439638
8.1003095920022	0.66186899105553
8.0850177454153	0.66195578963000
8.0697835262450	0.66204281856362
8.0546066093498	0.66213007629639
8.0394866720300	0.66221756126486
8.0244233940043	0.66230527190270
8.0094164573871	0.66239320664105
7.9944655466667	0.66248136390906
7.9795703486825	0.66256974213432
7.9647305526036	0.66265833974326
7.9499458499072	0.66274715516167
7.9352159343568	0.66283618681507
7.9205405019815	0.66292543312918
7.9059192510549	0.66301489253032
7.8913518820742	0.66310456344587
7.8768380977404	0.66319444430462
7.8623776029373	0.66328453353726
7.8479701047120	0.66337482957674
7.8336153122550	0.66346533085865
7.8193129368805	0.66355603582169
7.8050626920073	0.66364694290799
7.7908642931393	0.66373805056351
7.7767174578470	0.66382935723845
7.7626219057483	0.66392086138761
7.7485773584906	0.66401256147074
7.7345835397317	0.66410445595293
7.7206401751223	0.66419654330497
7.7067469922879	0.66428882200368
7.6929037208109	0.66438129053228
7.6791100922131	0.66447394738073
7.6653658399386	0.66456679104607
7.6516706993364	0.66465982003273
7.6380244076433	0.66475303285291
7.6244267039674	0.66484642802686
7.6108773292714	0.66494000408318
7.5973760263558	0.66503375955920
7.5839225398432	0.66512769300123
7.5705166161616	0.66522180296488
7.5571580035291	0.66531608801536
7.5438464519376	0.66541054672775
7.5305817131374	0.66550517768733
7.5173635406219	0.66559997948981
7.5041916896120	0.66569495074163
7.4910659170415	0.66579009006024
7.4779859815415	0.66588539607433
7.4649516434263	0.66598086742414
7.4519626646781	0.66607650276167
7.4390188089330	0.66617230075092
7.4261198414664	0.66626826006820
7.4132655291790	0.66636437940230
7.4004556405826	0.66646065745473
7.3876899457861	0.66655709294000
7.3749682164822	0.66665368458579
7.3622902259332	0.66675043113318
7.3496557489581	0.66684733133686
7.3370645619187	0.66694438396535
7.3245164427071	0.66704158780118
7.3120111707317	0.66713894164113
7.2995485269053	0.66723644429634
7.2871282936315	0.66733409459257
7.2747502547925	0.66743189137036
7.2624141957364	0.66752983348518
7.2501199032648	0.66762791980763
7.2378671656205	0.66772614922358
7.2256557724753	0.66782452063434
7.2134855149182	0.66792303295684
7.2013561854432	0.66802168512373
7.1892675779376	0.66812047608356
7.1772194876706	0.66821940480089
7.1652117112811	0.66831847025646
7.1532440467669	0.66841767144729
7.1413162934731	0.66851700738682
7.1294282520809	0.66861647710501
7.1175797245964	0.66871607964848
7.1057705143399	0.66881581408058
7.0940004259347	0.66891567948154
7.0822692652965	0.66901567494853
7.0705768396226	0.66911579959577
7.0589229573817	0.66921605255464
7.0473074283028	0.66931643297370
7.0357300633654	0.66941694001884
7.0241906747891	0.66951757287332
7.0126890760234	0.66961833073784
7.0012250817375	0.66971921283060
6.9897985078107	0.66982021838737
6.9784091713222	0.66992134666156
6.9670568905415	0.67002259692423
6.9557414849188	0.67012396846417
6.9444627750753	0.67022546058792
6.9332205827937	0.67032707261982
6.9220147310090	0.67042880390202
6.9108450437990	0.67053065379456
6.8997113463751	0.67063262167532
6.8886134650735	0.67073470694009
6.8775512273457	0.67083690900256
6.8665244617499	0.67093922729432
6.8555329979419	0.67104166126492
6.8445766666667	0.67114421038179
6.8336552997493	0.67124687413030
6.8227687300865	0.67134965201370
6.8119167916383	0.67145254355317
6.8010993194192	0.67155554828773
6.7903161494904	0.67165866577427
6.7795671189507	0.67176189558751
6.7688520659291	0.67186523731997
6.7581708295762	0.67196869058193
6.7475232500563	0.67207225500140
6.7369091685393	0.67217593022406
6.7263284271932	0.67227971591325
6.7157808691756	0.67238361174988
6.7052663386267	0.67248761743240
6.6947846806610	0.67259173267674
6.6843357413601	0.67269595721623
6.6739193677649	0.67280029080155
6.6635354078684	0.67290473320068
6.6531837106081	0.67300928419878
6.6428641258586	0.67311394359813
6.6325765044248	0.67321871121808
6.6223206980340	0.67332358689493
6.6120965593295	0.67342857048186
6.6019039418630	0.67353366184882
6.5917427000879	0.67363886088245
6.5816126893524	0.67374416748599
6.5715137658922	0.67384958157915
6.5614457868243	0.67395510309803
6.5514086101399	0.67406073199501
6.5414020946978	0.67416646823861
6.5314261002179	0.67427231181341
6.5214804872743	0.67437826271992
6.5115651172893	0.67448432097443
6.5016798525266	0.67459048660894
6.4918245560849	0.67469675967098
6.4819990918919	0.67480314022351
6.4722033246978	0.67490962834478
6.4624371200690	0.67501622412819
6.4527003443823	0.67512292768214
6.4429928648184	0.67522973912990
6.4333145493562	0.67533665860948
6.4236652667667	0.67544368627345
6.4140448866068	0.67555082228879
6.4044532792138	0.67565806683679
6.3948903156997	0.67576542011281
6.3853558679446	0.67587288232620
6.3758498085921	0.67598045370007
6.3663720110427	0.67608813447121
6.3569223494487	0.67619592488982
6.3475006987084	0.67630382521942
6.3381069344609	0.67641183573668
6.3287409330800	0.67651995673118
6.3194025716695	0.67662818850530
6.3100917280572	0.67673653137402
6.3008082807902	0.67684498566473
6.2915521091291	0.67695355171707
6.2823230930427	0.67706222988273
6.2731211132036	0.67717102052526
6.2639460509820	0.67727992401992
6.2547977884415	0.67738894075342
6.2456762083333	0.67749807112382
6.2365811940919	0.67760731554025
6.2275126298297	0.67771667442277
6.2184704003319	0.67782614820216
6.2094543910522	0.67793573731970
6.2004644881075	0.67804544222702
6.1915005782734	0.67815526338584
6.1825625489792	0.67826520126781
6.1736502883031	0.67837525635430
6.1647636849681	0.67848542913617
6.1559026283368	0.67859572011359
6.1470670084068	0.67870612979582
6.1382567158067	0.67881665870100
6.1294716417910	0.67892730735594
6.1207116782360	0.67903807629593
6.1119767176351	0.67914896606448
6.1032666530945	0.67925997721316
6.0945813783289	0.67937111030134
6.0859207876573	0.67948236589602
6.0772847759984	0.67959374457157
6.0686732388664	0.67970524690954
6.0600860723671	0.67981687349843
6.0515231731934	0.67992862493347
6.0429844386212	0.68004050181643
6.0344697665056	0.68015250475535
6.0259790552764	0.68026463436436
6.0175122039342	0.68037689126344
6.0090691120465	0.68048927607822
6.0006496797438	0.68060178943971
5.9922538077154	0.68071443198415
5.9838813972056	0.68082720435272
5.9755323500100	0.68094010719136
5.9672065684713	0.68105314115052
5.9589039554760	0.68116630688496
5.9506244144502	0.68127960505351
5.9423678493558	0.68139303631887
5.9341341646873	0.68150660134734
5.9259232654675	0.68162030080866
5.9177350572444	0.68173413537572
5.9095694460871	0.68184810572441
5.9014263385827	0.68196221253333
5.8933056418321	0.68207645648360
5.8852072634472	0.68219083825864
5.8771311115468	0.68230535854393
5.8690770947533	0.68242001802683
5.8610451221896	0.68253481739630
5.8530351034752	0.68264975734271
5.8450469487229	0.68276483855763
5.8370805685358	0.68288006173359
5.8291358740035	0.68299542756389
5.8212127766990	0.68311093674233
5.8133111886756	0.68322658996304
5.8054310224632	0.68334238792025
5.7975721910656	0.68345833130807
5.7897346079567	0.68357442082028
5.7819181870781	0.68369065715008
5.7741228428351	0.68380704098996
5.7663484900942	0.68392357303139
5.7585950441798	0.68404025396468
5.7508624208709	0.68415708447874
5.7431505363985	0.68427406526086
5.7354593074421	0.68439119699653
5.7277886511272	0.68450848036922
5.7201384850219	0.68462591606016
5.7125087271341	0.68474350474817
5.7048992959087	0.68486124710941
5.6973101102242	0.68497914381723
5.6897410893908	0.68509719554193
5.6821921531463	0.68521540295056
5.6746632216544	0.68533376670678
5.6671542155009	0.68545228747057
5.6596650556919	0.68557096589812
5.6521956636501	0.68568980264160
5.6447459612126	0.68580879834896
5.6373158706281	0.68592795366376
5.6299053145540	0.68604726922497
5.6225142160540	0.68616674566681
5.6151424985952	0.68628638361852
5.6077900860456	0.68640618370421
5.6004569026714	0.68652614654267
5.5931428731343	0.68664627274720
5.5858479224893	0.68676656292542
5.5785719761816	0.68688701767911
5.5713149600446	0.68700763760400
5.5640768002970	0.68712842328967
5.5568574235403	0.68724937531930
5.5496567567568	0.68737049426957
5.5424747273063	0.68749178071044
5.5353112629247	0.68761323520505
5.5281662917204	0.68773485830948
5.5210397421731	0.68785665057269
5.5139315431304	0.68797861253626
5.5068416238060	0.68810074473432
5.4997699137773	0.68822304769335
5.4927163429828	0.68834552193206
5.4856808417200	0.68846816796122
5.4786633406433	0.68859098628353
5.4716637707611	0.68871397739349
5.4646820634342	0.68883714177723
5.4577181503732	0.68896047991239
5.4507719636364	0.68908399226799
5.4438434356274	0.68920767930430
5.4369324990932	0.68933154147270
5.4300390871219	0.68945557921556
5.4231631331404	0.68957979296611
5.4163045709124	0.68970418314834
5.4094633345363	0.68982875017684
5.4026393584430	0.68995349445674
5.3958325773938	0.69007841638355
5.3890429264785	0.69020351634307
5.3822703411131	0.69032879471126
5.3755147570378	0.69045425185420
5.3687761103152	0.69057988812790
5.3620543373278	0.69070570387826
5.3553493747767	0.69083169944097
5.3486611596789	0.69095787514137
5.3419896293656	0.69108423129442
5.3353347214807	0.69121076820458
5.3286963739780	0.69133748616573
5.3220745251198	0.69146438546109
5.3154691134752	0.69159146636313
5.3088800779175	0.69171872913352
5.3023073576229	0.69184617402303
5.2957508920685	0.69197380127147
5.2892106210303	0.69210161110764
5.2826864845815	0.69222960374923
5.2761784230905	0.69235777940280
5.2696863772192	0.69248613826368
5.2632102879213	0.69261468051595
5.2567500964405	0.69274340633238
5.2503057443082	0.69287231587436
5.2438771733427	0.69300140929188
5.2374643256464	0.69313068672350
5.2310671436050	0.69326014829624
5.2246855698850	0.69338979412564
5.2183195474326	0.69351962431567
5.2119690194715	0.69364963895868
5.2056339295016	0.69377983813545
5.1993142212973	0.69391022191508
5.1930098389052	0.69404079035503
5.1867207266436	0.69417154350108
5.1804468290997	0.69430248138731
5.1741880911288	0.69443360403610
5.1679444578521	0.69456491145814
5.1617158746556	0.69469640365236
5.1555022871883	0.69482808060602
5.1493036413604	0.69495994229463
5.1431198833419	0.69509198868200
5.1369509595613	0.69522421972024
5.1307968167037	0.69535663534978
5.1246574017094	0.69548923549935
5.1185326617722	0.69562202008604
5.1124225443383	0.69575498901528
5.1063269971044	0.69588814218091
5.1002459680163	0.69602147946517
5.0941794052676	0.69615500073873
5.0881272572980	0.69628870586075
5.0820894727920	0.69642259467892
5.0760660006773	0.69655666702944
5.0700567901235	0.69669092273714
5.0640617905405	0.69682536161548
5.0580809515775	0.69695998346660
5.0521142231210	0.69709478808140
5.0461615552937	0.69722977523956
5.0402228984533	0.69736494470963
5.0342982031906	0.69750029624906
5.0283874203287	0.69763582960430
5.0224905009214	0.69777154451085
5.0166073962517	0.69790744069331
5.0107380578305	0.69804351786549
5.0048824373957	0.69817977573047
4.9990404869101	0.69831621398068
4.9932121585610	0.69845283229797
4.9873974047579	0.69858963035373
4.9815961781323	0.69872660780894
4.9758084315353	0.69886376431429
4.9700341180371	0.69900109951026
4.9642731909256	0.69913861302723
4.9585256037049	0.69927630448556
4.9527913100942	0.69941417349570
4.9470702640264	0.69955221965832
4.9413624196473	0.69969044256440
4.9356677313138	0.69982884179532
4.9299861535932	0.69996741692302
4.9243176412615	0.70010616751009
4.9186621493027	0.70024509310989
4.9130196329072	0.70038419326668
4.9073900474709	0.70052346751573
4.9017733485939	0.70066291538350
4.8961694920790	0.70080253638769
4.8905784339315	0.70094233003744
4.8850001303569	0.70108229583345
4.8794345377604	0.70122243326808
4.8738816127459	0.70136274182556
4.8683413121143	0.70150322098207
4.8628135928629	0.70164387020594
4.8572984121841	0.70178468895775
4.8517957274640	0.70192567669051
4.8463054962819	0.70206683284982
4.8408276764088	0.70220815687400
4.8353622258065	0.70234964819427
