#Parameters = {thARC=0; nARC=1.5; thsub=1; p=1; nSub=1.25}
#"Wavelength / um"	"T (67) [Real Part]"
#--------------------------------------
14.989622900000	0.98765436650064
14.937342202292	0.98765999133652
14.885424925521	0.98766551206189
14.833867293419	0.98767092966210
14.782665581854	0.98767624511763
14.731816117936	0.98768145940409
14.681315279138	0.98768657349221
14.631159492435	0.98769158834786
14.581345233463	0.98769650493205
14.531869025691	0.98770132420094
14.482727439614	0.98770604710582
14.433917091960	0.98771067459313
14.385434644914	0.98771520760447
14.337276805356	0.98771964707658
14.289440324118	0.98772399394138
14.241921995249	0.98772824912595
14.194718655303	0.98773241355252
14.147827182633	0.98773648813852
14.101244496707	0.98774047379655
14.054967557431	0.98774437143437
14.008993364486	0.98774818195495
13.963318956684	0.98775190625644
13.917941411328	0.98775554523220
13.872857843591	0.98775909977078
13.828065405904	0.98776257075593
13.783561287356	0.98776595906662
13.739342713107	0.98776926557705
13.695406943810	0.98777249115661
13.651751275046	0.98777563666994
13.608373036768	0.98777870297691
13.565269592760	0.98778169093264
13.522438340099	0.98778460138746
13.479876708633	0.98778743518698
13.437582160466	0.98779019317206
13.395552189455	0.98779287617883
13.353784320713	0.98779548503865
13.312276110124	0.98779802057821
13.271025143869	0.98780048361945
13.230029037952	0.98780287497959
13.189285437747	0.98780519547116
13.148792017544	0.98780744590198
13.108546480105	0.98780962707520
13.068546556234	0.98781173978925
13.028790004346	0.98781378483790
12.989274610052	0.98781576301024
12.949998185745	0.98781767509071
12.910958570198	0.98781952185908
12.872153628167	0.98782130409046
12.833581250000	0.98782302255533
12.795239351259	0.98782467801953
12.757125872340	0.98782627124428
12.719238778108	0.98782780298615
12.681576057530	0.98782927399713
12.644135723323	0.98783068502459
12.606915811606	0.98783203681130
12.569914381551	0.98783333009544
12.533129515050	0.98783456561060
12.496559316382	0.98783574408582
12.460201911887	0.98783686624555
12.424055449648	0.98783793280969
12.388118099174	0.98783894449360
12.352388051092	0.98783990200808
12.316863516845	0.98784080605940
12.281542728390	0.98784165734933
12.246423937908	0.98784245657510
12.211505417515	0.98784320442943
12.176785458976	0.98784390160057
12.142262373431	0.98784454877224
12.107934491115	0.98784514662372
12.073800161095	0.98784569582979
12.039857751004	0.98784619706078
12.006105646776	0.98784665098256
11.972542252396	0.98784705825657
11.939165989646	0.98784741953980
11.905975297855	0.98784773548482
11.872968633663	0.98784800673978
11.840144470774	0.98784823394843
11.807501299724	0.98784841775011
11.775037627651	0.98784855877980
11.742751978065	0.98784865766808
11.710642890625	0.98784871504115
11.678708920919	0.98784873152089
11.646948640249	0.98784870772481
11.615360635413	0.98784864426607
11.583943508501	0.98784854175352
11.552695876686	0.98784840079168
11.521616372022	0.98784822198078
11.490703641242	0.98784800591674
11.459956345566	0.98784775319119
11.429373160503	0.98784746439148
11.398952775665	0.98784714010072
11.368693894577	0.98784678089772
11.338595234493	0.98784638735709
11.308655526217	0.98784596004918
11.278873513920	0.98784549954011
11.249247954972	0.98784500639180
11.219777619760	0.98784448116197
11.190461291527	0.98784392440415
11.161297766195	0.98784333666767
11.132285852209	0.98784271849770
11.103424370370	0.98784207043527
11.074712153676	0.98784139301724
11.046148047163	0.98784068677633
11.017730907755	0.98783995224116
10.989459604106	0.98783918993621
10.961333016453	0.98783840038188
10.933350036470	0.98783758409445
10.905509567115	0.98783674158616
10.877810522496	0.98783587336515
10.850251827723	0.98783497993551
10.822832418773	0.98783406179729
10.795551242348	0.98783311944650
10.768407255747	0.98783215337515
10.741399426729	0.98783116407121
10.714526733381	0.98783015201867
10.687788163993	0.98782911769752
10.661182716927	0.98782806158380
10.634709400497	0.98782698414957
10.608367232838	0.98782588586294
10.582155241793	0.98782476718809
10.556072464789	0.98782362858526
10.530117948718	0.98782247051078
10.504290749825	0.98782129341711
10.478589933590	0.98782009775276
10.453014574616	0.98781888396243
10.427563756522	0.98781765248689
10.402236571825	0.98781640376312
10.377032121841	0.98781513822421
10.351949516575	0.98781385629946
10.326987874612	0.98781255841432
10.302146323024	0.98781124499047
10.277423997257	0.98780991644578
10.252820041040	0.98780857319436
10.228333606278	0.98780721564653
10.203963852961	0.98780584420889
10.179709949066	0.98780445928427
10.155571070461	0.98780306127181
10.131546400811	0.98780165056690
10.107635131490	0.98780022756125
10.083836461487	0.98779879264289
10.060149597315	0.98779734619616
10.036573752929	0.98779588860174
10.013108149633	0.98779442023668
9.9897520159947	0.98779294147438
9.9665045877660	0.98779145268462
9.9433651077944	0.98778995423356
9.9203328259431	0.98778844648380
9.8974069990096	0.98778692979432
9.8745868906456	0.98778540452055
9.8518717712783	0.98778387101437
9.8292609180328	0.98778232962411
9.8067536146549	0.98778078069456
9.7843491514360	0.98777922456701
9.7620468251384	0.98777766157926
9.7398459389214	0.98777609206559
9.7177458022690	0.98777451635683
9.6957457309185	0.98777293478034
9.6738450467893	0.98777134766004
9.6520430779137	0.98776975531640
9.6303391583681	0.98776815806649
9.6087326282051	0.98776655622396
9.5872228333866	0.98776495009908
9.5658091257179	0.98776333999871
9.5444908627826	0.98776172622639
9.5232674078780	0.98776010908228
9.5021381299525	0.98775848886321
9.4811024035421	0.98775686586268
9.4601596087094	0.98775524037088
9.4393091309824	0.98775361267473
9.4185503612944	0.98775198305783
9.3978826959248	0.98775035180053
9.3773055364404	0.98774871917994
9.3568182896380	0.98774708546991
9.3364203674868	0.98774545094106
9.3161111870727	0.98774381586082
9.2958901705426	0.98774218049341
9.2757567450495	0.98774054509986
9.2557103426984	0.98773890993805
9.2357504004929	0.98773727526269
9.2158763602828	0.98773564132534
9.1960876687117	0.98773400837445
9.1763837771656	0.98773237665536
9.1567641417227	0.98773074641030
9.1372282231027	0.98772911787842
9.1177754866180	0.98772749129580
9.0984054021244	0.98772586689546
9.0791174439733	0.98772424490738
9.0599110909640	0.98772262555853
9.0407858262967	0.98772100907285
9.0217411375263	0.98771939567128
9.0027765165165	0.98771778557179
8.9838914593947	0.98771617898936
8.9650854665072	0.98771457613604
8.9463580423754	0.98771297722092
8.9277086956522	0.98771138245018
8.9091369390788	0.98770979202707
8.8906422894425	0.98770820615196
8.8722242675348	0.98770662502233
8.8538823981099	0.98770504883280
8.8356162098438	0.98770347777511
8.8174252352941	0.98770191203819
8.7993090108600	0.98770035180814
8.7812670767428	0.98769879726825
8.7632989769073	0.98769724859900
8.7454042590432	0.98769570597810
8.7275824745269	0.98769416958051
8.7098331783847	0.98769263957841
8.6921559292549	0.98769111614126
8.6745502893519	0.98768959943579
8.6570158244297	0.98768808962604
8.6395521037464	0.98768658687333
8.6221587000288	0.98768509133633
8.6048351894374	0.98768360317102
8.5875811515325	0.98768212253075
8.5703961692396	0.98768064956623
8.5532798288160	0.98767918442556
8.5362317198178	0.98767772725421
8.5192514350668	0.98767627819508
8.5023385706183	0.98767483738850
8.4854927257288	0.98767340497222
8.4687135028249	0.98767198108146
8.4520005074711	0.98767056584890
8.4353533483399	0.98766915940472
8.4187716371806	0.98766776187657
8.4022549887892	0.98766637338964
8.3858030209790	0.98766499406664
8.3694153545505	0.98766362402780
8.3530916132627	0.98766226339095
8.3368314238042	0.98766091227146
8.3206344157646	0.98765957078229
8.3045002216066	0.98765823903402
8.2884284766381	0.98765691713483
8.2724188189845	0.98765560519054
8.2564708895621	0.98765430330461
8.2405843320506	0.98765301157815
8.2247587928669	0.98765173010998
8.2089939211391	0.98765045899658
8.1932893686800	0.98764919833214
8.1776447899618	0.98764794820858
8.1620598420909	0.98764670871555
8.1465341847826	0.98764547994044
8.1310674803363	0.98764426196842
8.1156593936113	0.98764305488243
8.1003095920022	0.98764185876320
8.0850177454153	0.98764067368927
8.0697835262450	0.98763949973702
8.0546066093498	0.98763833698064
8.0394866720300	0.98763718549220
8.0244233940043	0.98763604534161
8.0094164573871	0.98763491659669
7.9944655466667	0.98763379932313
7.9795703486825	0.98763269358456
7.9647305526036	0.98763159944251
7.9499458499072	0.98763051695646
7.9352159343568	0.98762944618385
7.9205405019815	0.98762838718009
7.9059192510549	0.98762733999857
7.8913518820742	0.98762630469069
7.8768380977404	0.98762528130584
7.8623776029373	0.98762426989147
7.8479701047120	0.98762327049305
7.8336153122550	0.98762228315412
7.8193129368805	0.98762130791630
7.8050626920073	0.98762034481927
7.7908642931393	0.98761939390084
7.7767174578470	0.98761845519692
7.7626219057483	0.98761752874157
7.7485773584906	0.98761661456697
7.7345835397317	0.98761571270348
7.7206401751223	0.98761482317962
7.7067469922879	0.98761394602212
7.6929037208109	0.98761308125589
7.6791100922131	0.98761222890408
7.6653658399386	0.98761138898806
7.6516706993364	0.98761056152745
7.6380244076433	0.98760974654013
7.6244267039674	0.98760894404226
7.6108773292714	0.98760815404830
7.5973760263558	0.98760737657099
7.5839225398432	0.98760661162141
7.5705166161616	0.98760585920896
7.5571580035291	0.98760511934142
7.5438464519376	0.98760439202488
7.5305817131374	0.98760367726386
7.5173635406219	0.98760297506124
7.5041916896120	0.98760228541831
7.4910659170415	0.98760160833478
7.4779859815415	0.98760094380881
7.4649516434263	0.98760029183699
7.4519626646781	0.98759965241438
7.4390188089330	0.98759902553451
7.4261198414664	0.98759841118941
7.4132655291790	0.98759780936962
7.4004556405826	0.98759722006419
7.3876899457861	0.98759664326069
7.3749682164822	0.98759607894527
7.3622902259332	0.98759552710262
7.3496557489581	0.98759498771601
7.3370645619187	0.98759446076730
7.3245164427071	0.98759394623696
7.3120111707317	0.98759344410406
7.2995485269053	0.98759295434633
7.2871282936315	0.98759247694011
7.2747502547925	0.98759201186044
7.2624141957364	0.98759155908101
7.2501199032648	0.98759111857419
7.2378671656205	0.98759069031108
7.2256557724753	0.98759027426146
7.2134855149182	0.98758987039387
7.2013561854432	0.98758947867557
7.1892675779376	0.98758909907260
7.1772194876706	0.98758873154975
7.1652117112811	0.98758837607060
7.1532440467669	0.98758803259754
7.1413162934731	0.98758770109175
7.1294282520809	0.98758738151324
7.1175797245964	0.98758707382089
7.1057705143399	0.98758677797238
7.0940004259347	0.98758649392430
7.0822692652965	0.98758622163209
7.0705768396226	0.98758596105011
7.0589229573817	0.98758571213160
7.0473074283028	0.98758547482874
7.0357300633654	0.98758524909263
7.0241906747891	0.98758503487333
7.0126890760234	0.98758483211983
7.0012250817375	0.98758464078014
6.9897985078107	0.98758446080122
6.9784091713222	0.98758429212903
6.9670568905415	0.98758413470858
6.9557414849188	0.98758398848386
6.9444627750753	0.98758385339793
6.9332205827937	0.98758372939289
6.9220147310090	0.98758361640990
6.9108450437990	0.98758351438922
6.8997113463751	0.98758342327019
6.8886134650735	0.98758334299125
6.8775512273457	0.98758327348995
6.8665244617499	0.98758321470300
6.8555329979419	0.98758316656622
6.8445766666667	0.98758312901462
6.8336552997493	0.98758310198235
6.8227687300865	0.98758308540275
6.8119167916383	0.98758307920838
6.8010993194192	0.98758308333096
6.7903161494904	0.98758309770148
6.7795671189507	0.98758312225013
6.7688520659291	0.98758315690636
6.7581708295762	0.98758320159887
6.7475232500563	0.98758325625563
6.7369091685393	0.98758332080392
6.7263284271932	0.98758339517027
6.7157808691756	0.98758347928056
6.7052663386267	0.98758357305996
6.6947846806610	0.98758367643300
6.6843357413601	0.98758378932353
6.6739193677649	0.98758391165478
6.6635354078684	0.98758404334933
6.6531837106081	0.98758418432917
6.6428641258586	0.98758433451565
6.6325765044248	0.98758449382955
6.6223206980340	0.98758466219106
6.6120965593295	0.98758483951980
6.6019039418630	0.98758502573485
6.5917427000879	0.98758522075471
6.5816126893524	0.98758542449738
6.5715137658922	0.98758563688032
6.5614457868243	0.98758585782049
6.5514086101399	0.98758608723435
6.5414020946978	0.98758632503787
6.5314261002179	0.98758657114655
6.5214804872743	0.98758682547543
6.5115651172893	0.98758708793909
6.5016798525266	0.98758735845167
6.4918245560849	0.98758763692690
6.4819990918919	0.98758792327807
6.4722033246978	0.98758821741810
6.4624371200690	0.98758851925947
6.4527003443823	0.98758882871433
6.4429928648184	0.98758914569440
6.4333145493562	0.98758947011110
6.4236652667667	0.98758980187547
6.4140448866068	0.98759014089822
6.4044532792138	0.98759048708973
6.3948903156997	0.98759084036007
6.3853558679446	0.98759120061901
6.3758498085921	0.98759156777603
6.3663720110427	0.98759194174031
6.3569223494487	0.98759232242079
6.3475006987084	0.98759270972612
6.3381069344609	0.98759310356473
6.3287409330800	0.98759350384479
6.3194025716695	0.98759391047426
6.3100917280572	0.98759432336086
6.3008082807902	0.98759474241214
6.2915521091291	0.98759516753543
6.2823230930427	0.98759559863788
6.2731211132036	0.98759603562647
6.2639460509820	0.98759647840801
6.2547977884415	0.98759692688917
6.2456762083333	0.98759738097647
6.2365811940919	0.98759784057630
6.2275126298297	0.98759830559492
6.2184704003319	0.98759877593850
6.2094543910522	0.98759925151308
6.2004644881075	0.98759973222463
6.1915005782734	0.98760021797903
6.1825625489792	0.98760070868210
6.1736502883031	0.98760120423959
6.1647636849681	0.98760170455720
6.1559026283368	0.98760220954059
6.1470670084068	0.98760271909538
6.1382567158067	0.98760323312718
6.1294716417910	0.98760375154160
6.1207116782360	0.98760427424422
6.1119767176351	0.98760480114064
6.1032666530945	0.98760533213649
6.0945813783289	0.98760586713741
6.0859207876573	0.98760640604908
6.0772847759984	0.98760694877723
6.0686732388664	0.98760749522765
6.0600860723671	0.98760804530618
6.0515231731934	0.98760859891875
6.0429844386212	0.98760915597135
6.0344697665056	0.98760971637009
6.0259790552764	0.98761028002118
6.0175122039342	0.98761084683090
6.0090691120465	0.98761141670570
6.0006496797438	0.98761198955214
5.9922538077154	0.98761256527690
5.9838813972056	0.98761314378683
5.9755323500100	0.98761372498892
5.9672065684713	0.98761430879033
5.9589039554760	0.98761489509840
5.9506244144502	0.98761548382064
5.9423678493558	0.98761607486476
5.9341341646873	0.98761666813864
5.9259232654675	0.98761726355041
5.9177350572444	0.98761786100838
5.9095694460871	0.98761846042110
5.9014263385827	0.98761906169736
5.8933056418321	0.98761966474616
5.8852072634472	0.98762026947677
5.8771311115468	0.98762087579872
5.8690770947533	0.98762148362180
5.8610451221896	0.98762209285606
5.8530351034752	0.98762270341185
5.8450469487229	0.98762331519979
5.8370805685358	0.98762392813081
5.8291358740035	0.98762454211613
5.8212127766990	0.98762515706731
5.8133111886756	0.98762577289619
5.8054310224632	0.98762638951497
5.7975721910656	0.98762700683617
5.7897346079567	0.98762762477265
5.7819181870781	0.98762824323762
5.7741228428351	0.98762886214466
5.7663484900942	0.98762948140770
5.7585950441798	0.98763010094105
5.7508624208709	0.98763072065939
5.7431505363985	0.98763134047779
5.7354593074421	0.98763196031172
5.7277886511272	0.98763258007704
5.7201384850219	0.98763319969002
5.7125087271341	0.98763381906736
5.7048992959087	0.98763443812614
5.6973101102242	0.98763505678392
5.6897410893908	0.98763567495865
5.6821921531463	0.98763629256875
5.6746632216544	0.98763690953307
5.6671542155009	0.98763752577093
5.6596650556919	0.98763814120209
5.6521956636501	0.98763875574680
5.6447459612126	0.98763936932577
5.6373158706281	0.98763998186019
5.6299053145540	0.98764059327175
5.6225142160540	0.98764120348260
5.6151424985952	0.98764181241543
5.6077900860456	0.98764241999340
5.6004569026714	0.98764302614020
5.5931428731343	0.98764363078004
5.5858479224893	0.98764423383764
5.5785719761816	0.98764483523824
5.5713149600446	0.98764543490765
5.5640768002970	0.98764603277217
5.5568574235403	0.98764662875868
5.5496567567568	0.98764722279462
5.5424747273063	0.98764781480794
5.5353112629247	0.98764840472720
5.5281662917204	0.98764899248151
5.5210397421731	0.98764957800053
5.5139315431304	0.98765016121454
5.5068416238060	0.98765074205438
5.4997699137773	0.98765132045146
5.4927163429828	0.98765189633783
5.4856808417200	0.98765246964609
5.4786633406433	0.98765304030948
5.4716637707611	0.98765360826183
5.4646820634342	0.98765417343757
5.4577181503732	0.98765473577179
5.4507719636364	0.98765529520016
5.4438434356274	0.98765585165899
5.4369324990932	0.98765640508524
5.4300390871219	0.98765695541648
5.4231631331404	0.98765750259094
5.4163045709124	0.98765804654748
5.4094633345363	0.98765858722562
5.4026393584430	0.98765912456553
5.3958325773938	0.98765965850803
5.3890429264785	0.98766018899462
5.3822703411131	0.98766071596746
5.3755147570378	0.98766123936936
5.3687761103152	0.98766175914383
5.3620543373278	0.98766227523504
5.3553493747767	0.98766278758786
5.3486611596789	0.98766329614782
5.3419896293656	0.98766380086116
5.3353347214807	0.98766430167481
5.3286963739780	0.98766479853638
5.3220745251198	0.98766529139420
5.3154691134752	0.98766578019729
5.3088800779175	0.98766626489538
5.3023073576229	0.98766674543891
5.2957508920685	0.98766722177903
5.2892106210303	0.98766769386761
5.2826864845815	0.98766816165724
5.2761784230905	0.98766862510123
5.2696863772192	0.98766908415361
5.2632102879213	0.98766953876915
5.2567500964405	0.98766998890333
5.2503057443082	0.98767043451238
5.2438771733427	0.98767087555327
5.2374643256464	0.98767131198370
5.2310671436050	0.98767174376210
5.2246855698850	0.98767217084767
5.2183195474326	0.98767259320034
5.2119690194715	0.98767301078078
5.2056339295016	0.98767342355043
5.1993142212973	0.98767383147147
5.1930098389052	0.98767423450685
5.1867207266436	0.98767463262025
5.1804468290997	0.98767502577615
5.1741880911288	0.98767541393974
5.1679444578521	0.98767579707702
5.1617158746556	0.98767617515473
5.1555022871883	0.98767654814039
5.1493036413604	0.98767691600226
5.1431198833419	0.98767727870941
5.1369509595613	0.98767763623166
5.1307968167037	0.98767798853960
5.1246574017094	0.98767833560459
5.1185326617722	0.98767867739880
5.1124225443383	0.98767901389514
5.1063269971044	0.98767934506731
5.1002459680163	0.98767967088979
5.0941794052676	0.98767999133785
5.0881272572980	0.98768030638752
5.0820894727920	0.98768061601564
5.0760660006773	0.98768092019981
5.0700567901235	0.98768121891843
5.0640617905405	0.98768151215068
5.0580809515775	0.98768179987651
5.0521142231210	0.98768208207668
5.0461615552937	0.98768235873273
5.0402228984533	0.98768262982699
5.0342982031906	0.98768289534256
5.0283874203287	0.98768315526334
5.0224905009214	0.98768340957404
5.0166073962517	0.98768365826012
5.0107380578305	0.98768390130785
5.0048824373957	0.98768413870429
4.9990404869101	0.98768437043729
4.9932121585610	0.98768459649547
4.9873974047579	0.98768481686826
4.9815961781323	0.98768503154587
4.9758084315353	0.98768524051931
4.9700341180371	0.98768544378035
4.9642731909256	0.98768564132157
4.9585256037049	0.98768583313635
4.9527913100942	0.98768601921882
4.9470702640264	0.98768619956392
4.9413624196473	0.98768637416737
4.9356677313138	0.98768654302568
4.9299861535932	0.98768670613613
4.9243176412615	0.98768686349681
4.9186621493027	0.98768701510656
4.9130196329072	0.98768716096502
4.9073900474709	0.98768730107260
4.9017733485939	0.98768743543050
4.8961694920790	0.98768756404070
4.8905784339315	0.98768768690594
4.8850001303569	0.98768780402975
4.8794345377604	0.98768791541642
4.8738816127459	0.98768802107103
4.8683413121143	0.98768812099941
4.8628135928629	0.98768821520819
4.8572984121841	0.98768830370473
4.8517957274640	0.98768838649718
4.8463054962819	0.98768846359446
4.8408276764088	0.98768853500622
4.8353622258065	0.98768860074291
