#Parameters = {thARC=0.2; nARC=2.25; thsub=1; p=1; nSub=4}
#"Wavelength / um"	"T (680) [Real Part]"
#---------------------------------------
14.989622900000	0.64799860266311
14.937342202292	0.64809392041239
14.885424925521	0.64818827855727
14.833867293419	0.64828169333405
14.782665581854	0.64837418089682
14.731816117936	0.64846575731627
14.681315279138	0.64855643857858
14.631159492435	0.64864624058433
14.581345233463	0.64873517914737
14.531869025691	0.64882326999377
14.482727439614	0.64891052876080
14.433917091960	0.64899697099592
14.385434644914	0.64908261215573
14.337276805356	0.64916746760509
14.289440324118	0.64925155261608
14.241921995249	0.64933488236716
14.194718655303	0.64941747194222
14.147827182633	0.64949933632974
14.101244496707	0.64958049042189
14.054967557431	0.64966094901376
14.008993364486	0.64974072680251
13.963318956684	0.64981983838660
13.917941411328	0.64989829826503
13.872857843591	0.64997612083660
13.828065405904	0.65005332039920
13.783561287356	0.65012991114909
13.739342713107	0.65020590718028
13.695406943810	0.65028132248381
13.651751275046	0.65035617094720
13.608373036768	0.65043046635376
13.565269592760	0.65050422238209
13.522438340099	0.65057745260544
13.479876708633	0.65065017049123
13.437582160466	0.65072238940048
13.395552189455	0.65079412258735
13.353784320713	0.65086538319862
13.312276110124	0.65093618427327
13.271025143869	0.65100653874203
13.230029037952	0.65107645942695
13.189285437747	0.65114595904099
13.148792017544	0.65121505018771
13.108546480105	0.65128374536082
13.068546556234	0.65135205694390
13.028790004346	0.65141999721010
12.989274610052	0.65148757832175
12.949998185745	0.65155481233020
12.910958570198	0.65162171117546
12.872153628167	0.65168828668600
12.833581250000	0.65175455057854
12.795239351259	0.65182051445782
12.757125872340	0.65188618981642
12.719238778108	0.65195158803459
12.681576057530	0.65201672038011
12.644135723323	0.65208159800814
12.606915811606	0.65214623196112
12.569914381551	0.65221063316866
12.533129515050	0.65227481244748
12.496559316382	0.65233878050130
12.460201911887	0.65240254792086
12.424055449648	0.65246612518383
12.388118099174	0.65252952265483
12.352388051092	0.65259275058542
12.316863516845	0.65265581911410
12.281542728390	0.65271873826640
12.246423937908	0.65278151795488
12.211505417515	0.65284416797919
12.176785458976	0.65290669802618
12.142262373431	0.65296911767001
12.107934491115	0.65303143637221
12.073800161095	0.65309366348182
12.039857751004	0.65315580823558
12.006105646776	0.65321787975801
11.972542252396	0.65327988706164
11.939165989646	0.65334183904714
11.905975297855	0.65340374450357
11.872968633663	0.65346561210853
11.840144470774	0.65352745042843
11.807501299724	0.65358926791873
11.775037627651	0.65365107292413
11.742751978065	0.65371287367891
11.710642890625	0.65377467830713
11.678708920919	0.65383649482299
11.646948640249	0.65389833113107
11.615360635413	0.65396019502665
11.583943508501	0.65402209419609
11.552695876686	0.65408403621708
11.521616372022	0.65414602855905
11.490703641242	0.65420807858350
11.459956345566	0.65427019354438
11.429373160503	0.65433238058845
11.398952775665	0.65439464675570
11.368693894577	0.65445699897973
11.338595234493	0.65451944408816
11.308655526217	0.65458198880308
11.278873513920	0.65464463974144
11.249247954972	0.65470740341552
11.219777619760	0.65477028623338
11.190461291527	0.65483329449931
11.161297766195	0.65489643441429
11.132285852209	0.65495971207651
11.103424370370	0.65502313348182
11.074712153676	0.65508670452423
11.046148047163	0.65515043099644
11.017730907755	0.65521431859034
10.989459604106	0.65527837289753
10.961333016453	0.65534259940983
10.933350036470	0.65540700351987
10.905509567115	0.65547159052160
10.877810522496	0.65553636561085
10.850251827723	0.65560133388588
10.822832418773	0.65566650034798
10.795551242348	0.65573186990202
10.768407255747	0.65579744735705
10.741399426729	0.65586323742685
10.714526733381	0.65592924473059
10.687788163993	0.65599547379339
10.661182716927	0.65606192904693
10.634709400497	0.65612861483007
10.608367232838	0.65619553538950
10.582155241793	0.65626269488031
10.556072464789	0.65633009736669
10.530117948718	0.65639774682249
10.504290749825	0.65646564713195
10.478589933590	0.65653380209029
10.453014574616	0.65660221540438
10.427563756522	0.65667089069340
10.402236571825	0.65673983148951
10.377032121841	0.65680904123851
10.351949516575	0.65687852330053
10.326987874612	0.65694828095068
10.302146323024	0.65701831737975
10.277423997257	0.65708863569490
10.252820041040	0.65715923892035
10.228333606278	0.65723012999805
10.203963852961	0.65730131178841
10.179709949066	0.65737278707099
10.155571070461	0.65744455854521
10.131546400811	0.65751662883101
10.107635131490	0.65758900046966
10.083836461487	0.65766167592438
10.060149597315	0.65773465758110
10.036573752929	0.65780794774920
10.013108149633	0.65788154866216
9.9897520159947	0.65795546247838
9.9665045877660	0.65802969128185
9.9433651077944	0.65810423708287
9.9203328259431	0.65817910181883
9.8974069990096	0.65825428735491
9.8745868906456	0.65832979548482
9.8518717712783	0.65840562793156
9.8292609180328	0.65848178634813
9.8067536146549	0.65855827231829
9.7843491514360	0.65863508735731
9.7620468251384	0.65871223291269
9.7398459389214	0.65878971036492
9.7177458022690	0.65886752102824
9.6957457309185	0.65894566615137
9.6738450467893	0.65902414691825
9.6520430779137	0.65910296444884
9.6303391583681	0.65918211979980
9.6087326282051	0.65926161396528
9.5872228333866	0.65934144787770
9.5658091257179	0.65942162240843
9.5444908627826	0.65950213836861
9.5232674078780	0.65958299650988
9.5021381299525	0.65966419752509
9.4811024035421	0.65974574204915
9.4601596087094	0.65982763065967
9.4393091309824	0.65990986387781
9.4185503612944	0.65999244216896
9.3978826959248	0.66007536594355
9.3773055364404	0.66015863555774
9.3568182896380	0.66024225131424
9.3364203674868	0.66032621346299
9.3161111870727	0.66041052220199
9.2958901705426	0.66049517767797
9.2757567450495	0.66058017998717
9.2557103426984	0.66066552917611
9.2357504004929	0.66075122524230
9.2158763602828	0.66083726813501
9.1960876687117	0.66092365775599
9.1763837771656	0.66101039396025
9.1567641417227	0.66109747655675
9.1372282231027	0.66118490530918
9.1177754866180	0.66127267993667
9.0984054021244	0.66136080011457
9.0791174439733	0.66144926547511
9.0599110909640	0.66153807560822
9.0407858262967	0.66162723006218
9.0217411375263	0.66171672834440
9.0027765165165	0.66180656992215
8.9838914593947	0.66189675422324
8.9650854665072	0.66198728063678
8.9463580423754	0.66207814851389
8.9277086956522	0.66216935716841
8.9091369390788	0.66226090587764
8.8906422894425	0.66235279388300
8.8722242675348	0.66244502039080
8.8538823981099	0.66253758457293
8.8356162098438	0.66263048556754
8.8174252352941	0.66272372247976
8.7993090108600	0.66281729438241
8.7812670767428	0.66291120031668
8.7632989769073	0.66300543929282
8.7454042590432	0.66310001029085
8.7275824745269	0.66319491226125
8.7098331783847	0.66329014412559
8.6921559292549	0.66338570477730
8.6745502893519	0.66348159308227
8.6570158244297	0.66357780787956
8.6395521037464	0.66367434798208
8.6221587000288	0.66377121217723
8.6048351894374	0.66386839922758
8.5875811515325	0.66396590787154
8.5703961692396	0.66406373682398
8.5532798288160	0.66416188477695
8.5362317198178	0.66426035040024
8.5192514350668	0.66435913234212
8.5023385706183	0.66445822922992
8.4854927257288	0.66455763967067
8.4687135028249	0.66465736225178
8.4520005074711	0.66475739554162
8.4353533483399	0.66485773809018
8.4187716371806	0.66495838842966
8.4022549887892	0.66505934507513
8.3858030209790	0.66516060652510
8.3694153545505	0.66526217126219
8.3530916132627	0.66536403775365
8.3368314238042	0.66546620445204
8.3206344157646	0.66556866979578
8.3045002216066	0.66567143220977
8.2884284766381	0.66577449010596
8.2724188189845	0.66587784188395
8.2564708895621	0.66598148593154
8.2405843320506	0.66608542062534
8.2247587928669	0.66618964433133
8.2089939211391	0.66629415540539
8.1932893686800	0.66639895219392
8.1776447899618	0.66650403303437
8.1620598420909	0.66660939625575
8.1465341847826	0.66671504017926
8.1310674803363	0.66682096311876
8.1156593936113	0.66692716338134
8.1003095920022	0.66703363926783
8.0850177454153	0.66714038907338
8.0697835262450	0.66724741108790
8.0546066093498	0.66735470359665
8.0394866720300	0.66746226488071
8.0244233940043	0.66757009321752
8.0094164573871	0.66767818688133
7.9944655466667	0.66778654414376
7.9795703486825	0.66789516327425
7.9647305526036	0.66800404254055
7.9499458499072	0.66811318020923
7.9352159343568	0.66822257454611
7.9205405019815	0.66833222381678
7.9059192510549	0.66844212628703
7.8913518820742	0.66855228022332
7.8768380977404	0.66866268389325
7.8623776029373	0.66877333556599
7.8479701047120	0.66888423351274
7.8336153122550	0.66899537600715
7.8193129368805	0.66910676132576
7.8050626920073	0.66921838774847
7.7908642931393	0.66933025355889
7.7767174578470	0.66944235704479
7.7626219057483	0.66955469649856
7.7485773584906	0.66966727021752
7.7345835397317	0.66978007650441
7.7206401751223	0.66989311366772
7.7067469922879	0.67000638002215
7.6929037208109	0.67011987388890
7.6791100922131	0.67023359359615
7.6653658399386	0.67034753747935
7.6516706993364	0.67046170388164
7.6380244076433	0.67057609115420
7.6244267039674	0.67069069765658
7.6108773292714	0.67080552175709
7.5973760263558	0.67092056183313
7.5839225398432	0.67103581627151
7.5705166161616	0.67115128346880
7.5571580035291	0.67126696183169
7.5438464519376	0.67138284977725
7.5305817131374	0.67149894573329
7.5173635406219	0.67161524813866
7.5041916896120	0.67173175544355
7.4910659170415	0.67184846610981
7.4779859815415	0.67196537861121
7.4649516434263	0.67208249143377
7.4519626646781	0.67219980307600
7.4390188089330	0.67231731204922
7.4261198414664	0.67243501687779
7.4132655291790	0.67255291609942
7.4004556405826	0.67267100826538
7.3876899457861	0.67278929194080
7.3749682164822	0.67290776570489
7.3622902259332	0.67302642815120
7.3496557489581	0.67314527788785
7.3370645619187	0.67326431353777
7.3245164427071	0.67338353373889
7.3120111707317	0.67350293714442
7.2995485269053	0.67362252242303
7.2871282936315	0.67374228825905
7.2747502547925	0.67386223335270
7.2624141957364	0.67398235642027
7.2501199032648	0.67410265619432
7.2378671656205	0.67422313142387
7.2256557724753	0.67434378087456
7.2134855149182	0.67446460332887
7.2013561854432	0.67458559758623
7.1892675779376	0.67470676246324
7.1772194876706	0.67482809679381
7.1652117112811	0.67494959942929
7.1532440467669	0.67507126923864
7.1413162934731	0.67519310510859
7.1294282520809	0.67531510594374
7.1175797245964	0.67543727066672
7.1057705143399	0.67555959821829
7.0940004259347	0.67568208755750
7.0822692652965	0.67580473766176
7.0705768396226	0.67592754752698
7.0589229573817	0.67605051616768
7.0473074283028	0.67617364261704
7.0357300633654	0.67629692592708
7.0241906747891	0.67642036516866
7.0126890760234	0.67654395943161
7.0012250817375	0.67666770782481
6.9897985078107	0.67679160947626
6.9784091713222	0.67691566353311
6.9670568905415	0.67703986916180
6.9557414849188	0.67716422554802
6.9444627750753	0.67728873189686
6.9332205827937	0.67741338743278
6.9220147310090	0.67753819139971
6.9108450437990	0.67766314306104
6.8997113463751	0.67778824169967
6.8886134650735	0.67791348661807
6.8775512273457	0.67803887713823
6.8665244617499	0.67816441260177
6.8555329979419	0.67829009236985
6.8445766666667	0.67841591582327
6.8336552997493	0.67854188236242
6.8227687300865	0.67866799140728
6.8119167916383	0.67879424239744
6.8010993194192	0.67892063479207
6.7903161494904	0.67904716806990
6.7795671189507	0.67917384172921
6.7688520659291	0.67930065528780
6.7581708295762	0.67942760828296
6.7475232500563	0.67955470027144
6.7369091685393	0.67968193082941
6.7263284271932	0.67980929955240
6.7157808691756	0.67993680605528
6.7052663386267	0.68006444997218
6.6947846806610	0.68019223095646
6.6843357413601	0.68032014868064
6.6739193677649	0.68044820283631
6.6635354078684	0.68057639313409
6.6531837106081	0.68070471930356
6.6428641258586	0.68083318109317
6.6325765044248	0.68096177827013
6.6223206980340	0.68109051062038
6.6120965593295	0.68121937794846
6.6019039418630	0.68134838007745
6.5917427000879	0.68147751684882
6.5816126893524	0.68160678812237
6.5715137658922	0.68173619377613
6.5614457868243	0.68186573370621
6.5514086101399	0.68199540782672
6.5414020946978	0.68212521606966
6.5314261002179	0.68225515838475
6.5214804872743	0.68238523473937
6.5115651172893	0.68251544511839
6.5016798525266	0.68264578952406
6.4918245560849	0.68277626797585
6.4819990918919	0.68290688051033
6.4722033246978	0.68303762718106
6.4624371200690	0.68316850805836
6.4527003443823	0.68329952322925
6.4429928648184	0.68343067279726
6.4333145493562	0.68356195688227
6.4236652667667	0.68369337562036
6.4140448866068	0.68382492916365
6.4044532792138	0.68395661768016
6.3948903156997	0.68408844135358
6.3853558679446	0.68422040038318
6.3758498085921	0.68435249498357
6.3663720110427	0.68448472538456
6.3569223494487	0.68461709183100
6.3475006987084	0.68474959458254
6.3381069344609	0.68488223391349
6.3287409330800	0.68501501011265
6.3194025716695	0.68514792348306
6.3100917280572	0.68528097434188
6.3008082807902	0.68541416302013
6.2915521091291	0.68554748986256
6.2823230930427	0.68568095522740
6.2731211132036	0.68581455948617
6.2639460509820	0.68594830302350
6.2547977884415	0.68608218623691
6.2456762083333	0.68621620953659
6.2365811940919	0.68635037334522
6.2275126298297	0.68648467809774
6.2184704003319	0.68661912424113
6.2094543910522	0.68675371223422
6.2004644881075	0.68688844254745
6.1915005782734	0.68702331566265
6.1825625489792	0.68715833207284
6.1736502883031	0.68729349228201
6.1647636849681	0.68742879680487
6.1559026283368	0.68756424616662
6.1470670084068	0.68769984090278
6.1382567158067	0.68783558155890
6.1294716417910	0.68797146869036
6.1207116782360	0.68810750286212
6.1119767176351	0.68824368464852
6.1032666530945	0.68838001463301
6.0945813783289	0.68851649340795
6.0859207876573	0.68865312157434
6.0772847759984	0.68878989974161
6.0686732388664	0.68892682852736
6.0600860723671	0.68906390855714
6.0515231731934	0.68920114046421
6.0429844386212	0.68933852488927
6.0344697665056	0.68947606248027
6.0259790552764	0.68961375389210
6.0175122039342	0.68975159978643
6.0090691120465	0.68988960083138
6.0006496797438	0.69002775770134
5.9922538077154	0.69016607107671
5.9838813972056	0.69030454164361
5.9755323500100	0.69044317009373
5.9672065684713	0.69058195712397
5.9589039554760	0.69072090343628
5.9506244144502	0.69086000973737
5.9423678493558	0.69099927673850
5.9341341646873	0.69113870515518
5.9259232654675	0.69127829570697
5.9177350572444	0.69141804911721
5.9095694460871	0.69155796611278
5.9014263385827	0.69169804742386
5.8933056418321	0.69183829378367
5.8852072634472	0.69197870592821
5.8771311115468	0.69211928459608
5.8690770947533	0.69226003052813
5.8610451221896	0.69240094446732
5.8530351034752	0.69254202715839
5.8450469487229	0.69268327934767
5.8370805685358	0.69282470178281
5.8291358740035	0.69296629521254
5.8212127766990	0.69310806038645
5.8133111886756	0.69324999805469
5.8054310224632	0.69339210896781
5.7975721910656	0.69353439387643
5.7897346079567	0.69367685353107
5.7819181870781	0.69381948868188
5.7741228428351	0.69396230007841
5.7663484900942	0.69410528846935
5.7585950441798	0.69424845460233
5.7508624208709	0.69439179922367
5.7431505363985	0.69453532307811
5.7354593074421	0.69467902690865
5.7277886511272	0.69482291145625
5.7201384850219	0.69496697745963
5.7125087271341	0.69511122565504
5.7048992959087	0.69525565677602
5.6973101102242	0.69540027155319
5.6897410893908	0.69554507071402
5.6821921531463	0.69569005498257
5.6746632216544	0.69583522507935
5.6671542155009	0.69598058172100
5.6596650556919	0.69612612562015
5.6521956636501	0.69627185748515
5.6447459612126	0.69641777801989
5.6373158706281	0.69656388792357
5.6299053145540	0.69671018789049
5.6225142160540	0.69685667860982
5.6151424985952	0.69700336076544
5.6077900860456	0.69715023503568
5.6004569026714	0.69729730209314
5.5931428731343	0.69744456260450
5.5858479224893	0.69759201723029
5.5785719761816	0.69773966662471
5.5713149600446	0.69788751143544
5.5640768002970	0.69803555230342
5.5568574235403	0.69818378986268
5.5496567567568	0.69833222474015
5.5424747273063	0.69848085755544
5.5353112629247	0.69862968892071
5.5281662917204	0.69877871944044
5.5210397421731	0.69892794971127
5.5139315431304	0.69907738032182
5.5068416238060	0.69922701185250
5.4997699137773	0.69937684487538
5.4927163429828	0.69952687995395
5.4856808417200	0.69967711764301
5.4786633406433	0.69982755848848
5.4716637707611	0.69997820302725
5.4646820634342	0.70012905178699
5.4577181503732	0.70028010528604
5.4507719636364	0.70043136403321
5.4438434356274	0.70058282852765
5.4369324990932	0.70073449925869
5.4300390871219	0.70088637670573
5.4231631331404	0.70103846133802
5.4163045709124	0.70119075361460
5.4094633345363	0.70134325398413
5.4026393584430	0.70149596288472
5.3958325773938	0.70164888074386
5.3890429264785	0.70180200797825
5.3822703411131	0.70195534499370
5.3755147570378	0.70210889218496
5.3687761103152	0.70226264993567
5.3620543373278	0.70241661861818
5.3553493747767	0.70257079859346
5.3486611596789	0.70272519021102
5.3419896293656	0.70287979380873
5.3353347214807	0.70303460971281
5.3286963739780	0.70318963823762
5.3220745251198	0.70334487968567
5.3154691134752	0.70350033434745
5.3088800779175	0.70365600250137
5.3023073576229	0.70381188441366
5.2957508920685	0.70396798033829
5.2892106210303	0.70412429051690
5.2826864845815	0.70428081517870
5.2761784230905	0.70443755454041
5.2696863772192	0.70459450880618
5.2632102879213	0.70475167816754
5.2567500964405	0.70490906280330
5.2503057443082	0.70506666287952
5.2438771733427	0.70522447854945
5.2374643256464	0.70538250995345
5.2310671436050	0.70554075721897
5.2246855698850	0.70569922046047
5.2183195474326	0.70585789977943
5.2119690194715	0.70601679526423
5.2056339295016	0.70617590699018
5.1993142212973	0.70633523501947
5.1930098389052	0.70649477940111
5.1867207266436	0.70665454017094
5.1804468290997	0.70681451735159
5.1741880911288	0.70697471095245
5.1679444578521	0.70713512096969
5.1617158746556	0.70729574738621
5.1555022871883	0.70745659017163
5.1493036413604	0.70761764928233
5.1431198833419	0.70777892466139
5.1369509595613	0.70794041623863
5.1307968167037	0.70810212393061
5.1246574017094	0.70826404764061
5.1185326617722	0.70842618725869
5.1124225443383	0.70858854266166
5.1063269971044	0.70875111371313
5.1002459680163	0.70891390026351
5.0941794052676	0.70907690215007
5.0881272572980	0.70924011919693
5.0820894727920	0.70940355121510
5.0760660006773	0.70956719800257
5.0700567901235	0.70973105934426
5.0640617905405	0.70989513501215
5.0580809515775	0.71005942476527
5.0521142231210	0.71022392834977
5.0461615552937	0.71038864549899
5.0402228984533	0.71055357593349
5.0342982031906	0.71071871936114
5.0283874203287	0.71088407547715
5.0224905009214	0.71104964396418
5.0166073962517	0.71121542449237
5.0107380578305	0.71138141671945
5.0048824373957	0.71154762029079
4.9990404869101	0.71171403483952
4.9932121585610	0.71188065998657
4.9873974047579	0.71204749534078
4.9815961781323	0.71221454049902
4.9758084315353	0.71238179504622
4.9700341180371	0.71254925855554
4.9642731909256	0.71271693058842
4.9585256037049	0.71288481069472
4.9527913100942	0.71305289841281
4.9470702640264	0.71322119326967
4.9413624196473	0.71338969478104
4.9356677313138	0.71355840245152
4.9299861535932	0.71372731577468
4.9243176412615	0.71389643423321
4.9186621493027	0.71406575729902
4.9130196329072	0.71423528443342
4.9073900474709	0.71440501508717
4.9017733485939	0.71457494870070
4.8961694920790	0.71474508470423
4.8905784339315	0.71491542251786
4.8850001303569	0.71508596155181
4.8794345377604	0.71525670120647
4.8738816127459	0.71542764087263
4.8683413121143	0.71559877993160
4.8628135928629	0.71577011775537
4.8572984121841	0.71594165370678
4.8517957274640	0.71611338713967
4.8463054962819	0.71628531739907
4.8408276764088	0.71645744382134
4.8353622258065	0.71662976573437
