#Parameters = {thARC=0; nARC=3; thsub=1; p=1; nSub=4}
#"Wavelength / um"	"T (697) [Real Part]"
#---------------------------------------
14.989622900000	0.64000007011808
14.937342202292	0.64002788482691
14.885424925521	0.64005490464546
14.833867293419	0.64008114084258
14.782665581854	0.64010660461656
14.731816117936	0.64013130709474
14.681315279138	0.64015525933302
14.631159492435	0.64017847231546
14.581345233463	0.64020095695387
14.531869025691	0.64022272408741
14.482727439614	0.64024378448220
14.433917091960	0.64026414883095
14.385434644914	0.64028382775259
14.337276805356	0.64030283179197
14.289440324118	0.64032117141948
14.241921995249	0.64033885703073
14.194718655303	0.64035589894629
14.147827182633	0.64037230741134
14.101244496707	0.64038809259543
14.054967557431	0.64040326459219
14.008993364486	0.64041783341908
13.963318956684	0.64043180901714
13.917941411328	0.64044520125078
13.872857843591	0.64045801990751
13.828065405904	0.64047027469779
13.783561287356	0.64048197525479
13.739342713107	0.64049313113424
13.695406943810	0.64050375181423
13.651751275046	0.64051384669505
13.608373036768	0.64052342509905
13.565269592760	0.64053249627052
13.522438340099	0.64054106937551
13.479876708633	0.64054915350178
13.437582160466	0.64055675765862
13.395552189455	0.64056389077683
13.353784320713	0.64057056170859
13.312276110124	0.64057677922739
13.271025143869	0.64058255202800
13.230029037952	0.64058788872637
13.189285437747	0.64059279785962
13.148792017544	0.64059728788602
13.108546480105	0.64060136718493
13.068546556234	0.64060504405681
13.028790004346	0.64060832672324
12.989274610052	0.64061122332689
12.949998185745	0.64061374193157
12.910958570198	0.64061589052222
12.872153628167	0.64061767700499
12.833581250000	0.64061910920728
12.795239351259	0.64062019487775
12.757125872340	0.64062094168646
12.719238778108	0.64062135722488
12.681576057530	0.64062144900599
12.644135723323	0.64062122446440
12.606915811606	0.64062069095642
12.569914381551	0.64061985576018
12.533129515050	0.64061872607574
12.496559316382	0.64061730902525
12.460201911887	0.64061561165302
12.424055449648	0.64061364092572
12.388118099174	0.64061140373252
12.352388051092	0.64060890688522
12.316863516845	0.64060615711844
12.281542728390	0.64060316108980
12.246423937908	0.64059992538007
12.211505417515	0.64059645649340
12.176785458976	0.64059276085749
12.142262373431	0.64058884482380
12.107934491115	0.64058471466774
12.073800161095	0.64058037658895
12.039857751004	0.64057583671144
12.006105646776	0.64057110108389
11.972542252396	0.64056617567986
11.939165989646	0.64056106639804
11.905975297855	0.64055577906248
11.872968633663	0.64055031942288
11.840144470774	0.64054469315484
11.807501299724	0.64053890586014
11.775037627651	0.64053296306700
11.742751978065	0.64052687023035
11.710642890625	0.64052063273218
11.678708920919	0.64051425588175
11.646948640249	0.64050774491596
11.615360635413	0.64050110499961
11.583943508501	0.64049434122573
11.552695876686	0.64048745861590
11.521616372022	0.64048046212055
11.490703641242	0.64047335661933
11.459956345566	0.64046614692137
11.429373160503	0.64045883776570
11.398952775665	0.64045143382151
11.368693894577	0.64044393968858
11.338595234493	0.64043635989753
11.308655526217	0.64042869891029
11.278873513920	0.64042096112036
11.249247954972	0.64041315085324
11.219777619760	0.64040527236674
11.190461291527	0.64039732985143
11.161297766195	0.64038932743095
11.132285852209	0.64038126916240
11.103424370370	0.64037315903676
11.074712153676	0.64036500097925
11.046148047163	0.64035679884972
11.017730907755	0.64034855644305
10.989459604106	0.64034027748958
10.961333016453	0.64033196565546
10.933350036470	0.64032362454308
10.905509567115	0.64031525769150
10.877810522496	0.64030686857682
10.850251827723	0.64029846061264
10.822832418773	0.64029003715044
10.795551242348	0.64028160148004
10.768407255747	0.64027315682997
10.741399426729	0.64026470636796
10.714526733381	0.64025625320132
10.687788163993	0.64024780037742
10.661182716927	0.64023935088406
10.634709400497	0.64023090764997
10.608367232838	0.64022247354522
10.582155241793	0.64021405138165
10.556072464789	0.64020564391336
10.530117948718	0.64019725383709
10.504290749825	0.64018888379274
10.478589933590	0.64018053636375
10.453014574616	0.64017221407762
10.427563756522	0.64016391940631
10.402236571825	0.64015565476673
10.377032121841	0.64014742252115
10.351949516575	0.64013922497774
10.326987874612	0.64013106439096
10.302146323024	0.64012294296203
10.277423997257	0.64011486283943
10.252820041040	0.64010682611933
10.228333606278	0.64009883484608
10.203963852961	0.64009089101265
10.179709949066	0.64008299656112
10.155571070461	0.64007515338314
10.131546400811	0.64006736332041
10.107635131490	0.64005962816511
10.083836461487	0.64005194966045
10.060149597315	0.64004432950107
10.036573752929	0.64003676933352
10.013108149633	0.64002927075680
9.9897520159947	0.64002183532274
9.9665045877660	0.64001446453655
9.9433651077944	0.64000715985726
9.9203328259431	0.63999992269819
9.8974069990096	0.63999275442745
9.8745868906456	0.63998565636840
9.8518717712783	0.63997862980014
9.8292609180328	0.63997167595794
9.8067536146549	0.63996479603379
9.7843491514360	0.63995799117683
9.7620468251384	0.63995126249382
9.7398459389214	0.63994461104965
9.7177458022690	0.63993803786778
9.6957457309185	0.63993154393074
9.6738450467893	0.63992513018061
9.6520430779137	0.63991879751946
9.6303391583681	0.63991254680986
9.6087326282051	0.63990637887536
9.5872228333866	0.63990029450091
9.5658091257179	0.63989429443341
9.5444908627826	0.63988837938211
9.5232674078780	0.63988255001913
9.5021381299525	0.63987680697993
9.4811024035421	0.63987115086373
9.4601596087094	0.63986558223405
9.4393091309824	0.63986010161914
9.4185503612944	0.63985470951245
9.3978826959248	0.63984940637311
9.3773055364404	0.63984419262636
9.3568182896380	0.63983906866408
9.3364203674868	0.63983403484519
9.3161111870727	0.63982909149617
9.2958901705426	0.63982423891146
9.2757567450495	0.63981947735397
9.2557103426984	0.63981480705553
9.2357504004929	0.63981022821733
9.2158763602828	0.63980574101038
9.1960876687117	0.63980134557599
9.1763837771656	0.63979704202621
9.1567641417227	0.63979283044425
9.1372282231027	0.63978871088501
9.1177754866180	0.63978468337543
9.0984054021244	0.63978074791501
9.0791174439733	0.63977690447626
9.0599110909640	0.63977315300508
9.0407858262967	0.63976949342126
9.0217411375263	0.63976592561890
9.0027765165165	0.63976244946687
8.9838914593947	0.63975906480921
8.9650854665072	0.63975577146560
8.9463580423754	0.63975256923179
8.9277086956522	0.63974945787999
8.9091369390788	0.63974643715937
8.8906422894425	0.63974350679643
8.8722242675348	0.63974066649547
8.8538823981099	0.63973791593898
8.8356162098438	0.63973525478807
8.8174252352941	0.63973268268289
8.7993090108600	0.63973019924308
8.7812670767428	0.63972780406814
8.7632989769073	0.63972549673786
8.7454042590432	0.63972327681274
8.7275824745269	0.63972114383439
8.7098331783847	0.63971909732595
8.6921559292549	0.63971713679247
8.6745502893519	0.63971526172133
8.6570158244297	0.63971347158265
8.6395521037464	0.63971176582965
8.6221587000288	0.63971014389909
8.6048351894374	0.63970860521164
8.5875811515325	0.63970714917226
8.5703961692396	0.63970577517061
8.5532798288160	0.63970448258141
8.5362317198178	0.63970327076486
8.5192514350668	0.63970213906699
8.5023385706183	0.63970108682004
8.4854927257288	0.63970011334283
8.4687135028249	0.63969921794116
8.4520005074711	0.63969839990817
8.4353533483399	0.63969765852468
8.4187716371806	0.63969699305956
8.4022549887892	0.63969640277015
8.3858030209790	0.63969588690254
8.3694153545505	0.63969544469196
8.3530916132627	0.63969507536316
8.3368314238042	0.63969477813070
8.3206344157646	0.63969455219935
8.3045002216066	0.63969439676442
8.2884284766381	0.63969431101210
8.2724188189845	0.63969429411978
8.2564708895621	0.63969434525642
8.2405843320506	0.63969446358286
8.2247587928669	0.63969464825217
8.2089939211391	0.63969489840997
8.1932893686800	0.63969521319472
8.1776447899618	0.63969559173811
8.1620598420909	0.63969603316531
8.1465341847826	0.63969653659536
8.1310674803363	0.63969710114139
8.1156593936113	0.63969772591101
8.1003095920022	0.63969841000660
8.0850177454153	0.63969915252556
8.0697835262450	0.63969995256070
8.0546066093498	0.63970080920045
8.0394866720300	0.63970172152922
8.0244233940043	0.63970268862766
8.0094164573871	0.63970370957295
7.9944655466667	0.63970478343909
7.9795703486825	0.63970590929720
7.9647305526036	0.63970708621576
7.9499458499072	0.63970831326092
7.9352159343568	0.63970958949677
7.9205405019815	0.63971091398558
7.9059192510549	0.63971228578810
7.8913518820742	0.63971370396383
7.8768380977404	0.63971516757123
7.8623776029373	0.63971667566804
7.8479701047120	0.63971822731149
7.8336153122550	0.63971982155856
7.8193129368805	0.63972145746625
7.8050626920073	0.63972313409179
7.7908642931393	0.63972485049292
7.7767174578470	0.63972660572809
7.7626219057483	0.63972839885673
7.7485773584906	0.63973022893946
7.7345835397317	0.63973209503832
7.7206401751223	0.63973399621700
7.7067469922879	0.63973593154107
7.6929037208109	0.63973790007819
7.6791100922131	0.63973990089833
7.6653658399386	0.63974193307396
7.6516706993364	0.63974399568033
7.6380244076433	0.63974608779557
7.6244267039674	0.63974820850099
7.6108773292714	0.63975035688123
7.5973760263558	0.63975253202447
7.5839225398432	0.63975473302261
7.5705166161616	0.63975695897148
7.5571580035291	0.63975920897103
7.5438464519376	0.63976148212549
7.5305817131374	0.63976377754357
7.5173635406219	0.63976609433864
7.5041916896120	0.63976843162888
7.4910659170415	0.63977078853748
7.4779859815415	0.63977316419282
7.4649516434263	0.63977555772856
7.4519626646781	0.63977796828390
7.4390188089330	0.63978039500368
7.4261198414664	0.63978283703855
7.4132655291790	0.63978529354512
7.4004556405826	0.63978776368611
7.3876899457861	0.63979024663050
7.3749682164822	0.63979274155367
7.3622902259332	0.63979524763756
7.3496557489581	0.63979776407075
7.3370645619187	0.63980029004867
7.3245164427071	0.63980282477367
7.3120111707317	0.63980536745519
7.2995485269053	0.63980791730984
7.2871282936315	0.63981047356158
7.2747502547925	0.63981303544179
7.2624141957364	0.63981560218939
7.2501199032648	0.63981817305098
7.2378671656205	0.63982074728093
7.2256557724753	0.63982332414150
7.2134855149182	0.63982590290292
7.2013561854432	0.63982848284351
7.1892675779376	0.63983106324977
7.1772194876706	0.63983364341649
7.1652117112811	0.63983622264680
7.1532440467669	0.63983880025233
7.1413162934731	0.63984137555322
7.1294282520809	0.63984394787824
7.1175797245964	0.63984651656487
7.1057705143399	0.63984908095939
7.0940004259347	0.63985164041692
7.0822692652965	0.63985419430151
7.0705768396226	0.63985674198621
7.0589229573817	0.63985928285314
7.0473074283028	0.63986181629353
7.0357300633654	0.63986434170782
7.0241906747891	0.63986685850568
7.0126890760234	0.63986936610608
7.0012250817375	0.63987186393734
6.9897985078107	0.63987435143719
6.9784091713222	0.63987682805279
6.9670568905415	0.63987929324080
6.9557414849188	0.63988174646742
6.9444627750753	0.63988418720840
6.9332205827937	0.63988661494911
6.9220147310090	0.63988902918455
6.9108450437990	0.63989142941939
6.8997113463751	0.63989381516802
6.8886134650735	0.63989618595451
6.8775512273457	0.63989854131272
6.8665244617499	0.63990088078624
6.8555329979419	0.63990320392846
6.8445766666667	0.63990551030257
6.8336552997493	0.63990779948157
6.8227687300865	0.63991007104829
6.8119167916383	0.63991232459536
6.8010993194192	0.63991455972529
6.7903161494904	0.63991677605039
6.7795671189507	0.63991897319284
6.7688520659291	0.63992115078464
6.7581708295762	0.63992330846762
6.7475232500563	0.63992544589346
6.7369091685393	0.63992756272364
6.7263284271932	0.63992965862946
6.7157808691756	0.63993173329201
6.7052663386267	0.63993378640216
6.6947846806610	0.63993581766054
6.6843357413601	0.63993782677755
6.6739193677649	0.63993981347327
6.6635354078684	0.63994177747751
6.6531837106081	0.63994371852975
6.6428641258586	0.63994563637911
6.6325765044248	0.63994753078430
6.6223206980340	0.63994940151365
6.6120965593295	0.63995124834503
6.6019039418630	0.63995307106579
6.5917427000879	0.63995486947280
6.5816126893524	0.63995664337234
6.5715137658922	0.63995839258007
6.5614457868243	0.63996011692103
6.5514086101399	0.63996181622953
6.5414020946978	0.63996349034916
6.5314261002179	0.63996513913271
6.5214804872743	0.63996676244210
6.5115651172893	0.63996836014839
6.5016798525266	0.63996993213167
6.4918245560849	0.63997147828101
6.4819990918919	0.63997299849442
6.4722033246978	0.63997449267880
6.4624371200690	0.63997596074983
6.4527003443823	0.63997740263196
6.4429928648184	0.63997881825833
6.4333145493562	0.63998020757067
6.4236652667667	0.63998157051930
6.4140448866068	0.63998290706297
6.4044532792138	0.63998421716889
6.3948903156997	0.63998550081258
6.3853558679446	0.63998675797783
6.3758498085921	0.63998798865662
6.3663720110427	0.63998919284905
6.3569223494487	0.63999037056325
6.3475006987084	0.63999152181530
6.3381069344609	0.63999264662917
6.3287409330800	0.63999374503662
6.3194025716695	0.63999481707711
6.3100917280572	0.63999586279775
6.3008082807902	0.63999688225318
6.2915521091291	0.63999787550548
6.2823230930427	0.63999884262414
6.2731211132036	0.63999978368588
6.2639460509820	0.64000069877465
6.2547977884415	0.64000158798148
6.2456762083333	0.64000245140441
6.2365811940919	0.64000328914840
6.2275126298297	0.64000410132522
6.2184704003319	0.64000488805338
6.2094543910522	0.64000564945800
6.2004644881075	0.64000638567076
6.1915005782734	0.64000709682974
6.1825625489792	0.64000778307939
6.1736502883031	0.64000844457039
6.1647636849681	0.64000908145954
6.1559026283368	0.64000969390970
6.1470670084068	0.64001028208965
6.1382567158067	0.64001084617402
6.1294716417910	0.64001138634316
6.1207116782360	0.64001190278303
6.1119767176351	0.64001239568515
6.1032666530945	0.64001286524643
6.0945813783289	0.64001331166910
6.0859207876573	0.64001373516059
6.0772847759984	0.64001413593344
6.0686732388664	0.64001451420519
6.0600860723671	0.64001487019825
6.0515231731934	0.64001520413980
6.0429844386212	0.64001551626172
6.0344697665056	0.64001580680042
6.0259790552764	0.64001607599677
6.0175122039342	0.64001632409600
6.0090691120465	0.64001655134754
6.0006496797438	0.64001675800497
5.9922538077154	0.64001694432586
5.9838813972056	0.64001711057170
5.9755323500100	0.64001725700775
5.9672065684713	0.64001738390297
5.9589039554760	0.64001749152987
5.9506244144502	0.64001758016443
5.9423678493558	0.64001765008596
5.9341341646873	0.64001770157701
5.9259232654675	0.64001773492326
5.9177350572444	0.64001775041340
5.9095694460871	0.64001774833899
5.9014263385827	0.64001772899442
5.8933056418321	0.64001769267671
5.8852072634472	0.64001763968549
5.8771311115468	0.64001757032280
5.8690770947533	0.64001748489305
5.8610451221896	0.64001738370286
5.8530351034752	0.64001726706097
5.8450469487229	0.64001713527815
5.8370805685358	0.64001698866703
5.8291358740035	0.64001682754205
5.8212127766990	0.64001665221932
5.8133111886756	0.64001646301651
5.8054310224632	0.64001626025276
5.7975721910656	0.64001604424853
5.7897346079567	0.64001581532555
5.7819181870781	0.64001557380664
5.7741228428351	0.64001532001567
5.7663484900942	0.64001505427741
5.7585950441798	0.64001477691744
5.7508624208709	0.64001448826202
5.7431505363985	0.64001418863803
5.7354593074421	0.64001387837280
5.7277886511272	0.64001355779407
5.7201384850219	0.64001322722982
5.7125087271341	0.64001288700824
5.7048992959087	0.64001253745754
5.6973101102242	0.64001217890592
5.6897410893908	0.64001181168144
5.6821921531463	0.64001143611190
5.6746632216544	0.64001105252476
5.6671542155009	0.64001066124704
5.6596650556919	0.64001026260522
5.6521956636501	0.64000985692511
5.6447459612126	0.64000944453179
5.6373158706281	0.64000902574950
5.6299053145540	0.64000860090154
5.6225142160540	0.64000817031018
5.6151424985952	0.64000773429653
5.6077900860456	0.64000729318051
5.6004569026714	0.64000684728069
5.5931428731343	0.64000639691425
5.5858479224893	0.64000594239685
5.5785719761816	0.64000548404255
5.5713149600446	0.64000502216374
5.5640768002970	0.64000455707101
5.5568574235403	0.64000408907309
5.5496567567568	0.64000361847678
5.5424747273063	0.64000314558680
5.5353112629247	0.64000267070578
5.5281662917204	0.64000219413413
5.5210397421731	0.64000171616995
5.5139315431304	0.64000123710897
5.5068416238060	0.64000075724448
5.4997699137773	0.64000027686722
5.4927163429828	0.63999979626529
5.4856808417200	0.63999931572413
5.4786633406433	0.63999883552639
5.4716637707611	0.63999835595186
5.4646820634342	0.63999787727742
5.4577181503732	0.63999739977694
5.4507719636364	0.63999692372124
5.4438434356274	0.63999644937797
5.4369324990932	0.63999597701159
5.4300390871219	0.63999550688325
5.4231631331404	0.63999503925079
5.4163045709124	0.63999457436860
5.4094633345363	0.63999411248760
5.4026393584430	0.63999365385516
5.3958325773938	0.63999319871505
5.3890429264785	0.63999274730736
5.3822703411131	0.63999229986846
5.3755147570378	0.63999185663090
5.3687761103152	0.63999141782342
5.3620543373278	0.63999098367083
5.3553493747767	0.63999055439400
5.3486611596789	0.63999013020976
5.3419896293656	0.63998971133090
5.3353347214807	0.63998929796606
5.3286963739780	0.63998889031976
5.3220745251198	0.63998848859226
5.3154691134752	0.63998809297957
5.3088800779175	0.63998770367341
5.3023073576229	0.63998732086112
5.2957508920685	0.63998694472565
5.2892106210303	0.63998657544553
5.2826864845815	0.63998621319478
5.2761784230905	0.63998585814294
5.2696863772192	0.63998551045496
5.2632102879213	0.63998517029123
5.2567500964405	0.63998483780749
5.2503057443082	0.63998451315483
5.2438771733427	0.63998419647966
5.2374643256464	0.63998388792366
5.2310671436050	0.63998358762376
5.2246855698850	0.63998329571211
5.2183195474326	0.63998301231607
5.2119690194715	0.63998273755817
5.2056339295016	0.63998247155607
5.1993142212973	0.63998221442259
5.1930098389052	0.63998196626562
5.1867207266436	0.63998172718818
5.1804468290997	0.63998149728833
5.1741880911288	0.63998127665921
5.1679444578521	0.63998106538897
5.1617158746556	0.63998086356082
5.1555022871883	0.63998067125297
5.1493036413604	0.63998048853866
5.1431198833419	0.63998031548609
5.1369509595613	0.63998015215848
5.1307968167037	0.63997999861404
5.1246574017094	0.63997985490594
5.1185326617722	0.63997972108235
5.1124225443383	0.63997959718641
5.1063269971044	0.63997948325624
5.1002459680163	0.63997937932494
5.0941794052676	0.63997928542060
5.0881272572980	0.63997920156627
5.0820894727920	0.63997912778005
5.0760660006773	0.63997906407498
5.0700567901235	0.63997901045916
5.0640617905405	0.63997896693568
5.0580809515775	0.63997893350269
5.0521142231210	0.63997891015335
5.0461615552937	0.63997889687593
5.0402228984533	0.63997889365373
5.0342982031906	0.63997890046518
5.0283874203287	0.63997891728381
5.0224905009214	0.63997894407828
5.0166073962517	0.63997898081242
5.0107380578305	0.63997902744523
5.0048824373957	0.63997908393091
4.9990404869101	0.63997915021892
4.9932121585610	0.63997922625393
4.9873974047579	0.63997931197594
4.9815961781323	0.63997940732025
4.9758084315353	0.63997951221749
4.9700341180371	0.63997962659371
4.9642731909256	0.63997975037034
4.9585256037049	0.63997988346429
4.9527913100942	0.63998002578792
4.9470702640264	0.63998017724917
4.9413624196473	0.63998033775148
4.9356677313138	0.63998050719396
4.9299861535932	0.63998068547131
4.9243176412615	0.63998087247398
4.9186621493027	0.63998106808810
4.9130196329072	0.63998127219562
4.9073900474709	0.63998148467431
4.9017733485939	0.63998170539781
4.8961694920790	0.63998193423568
4.8905784339315	0.63998217105349
4.8850001303569	0.63998241571280
4.8794345377604	0.63998266807128
4.8738816127459	0.63998292798272
4.8683413121143	0.63998319529713
4.8628135928629	0.63998346986073
4.8572984121841	0.63998375151608
4.8517957274640	0.63998404010209
4.8463054962819	0.63998433545409
4.8408276764088	0.63998463740393
4.8353622258065	0.63998494577996
