#Parameters = {thARC=0.2; nARC=3; thsub=1; p=1; nSub=4}
#"Wavelength / um"	"T (698) [Real Part]"
#---------------------------------------
14.989622900000	0.65001900979889
14.937342202292	0.65013601353231
14.885424925521	0.65025185829669
14.833867293419	0.65036656335567
14.782665581854	0.65048014788904
14.731816117936	0.65059263099102
14.681315279138	0.65070403166854
14.631159492435	0.65081436883965
14.581345233463	0.65092366133183
14.531869025691	0.65103192788044
14.482727439614	0.65113918712714
14.433917091960	0.65124545761835
14.385434644914	0.65135075780375
14.337276805356	0.65145510603484
14.289440324118	0.65155852056343
14.241921995249	0.65166101954030
14.194718655303	0.65176262101379
14.147827182633	0.65186334292844
14.101244496707	0.65196320312367
14.054967557431	0.65206221933254
14.008993364486	0.65216040918041
13.963318956684	0.65225779018376
13.917941411328	0.65235437974900
13.872857843591	0.65245019517128
13.828065405904	0.65254525363332
13.783561287356	0.65263957220438
13.739342713107	0.65273316783908
13.695406943810	0.65282605737645
13.651751275046	0.65291825753881
13.608373036768	0.65300978493084
13.565269592760	0.65310065603862
13.522438340099	0.65319088722863
13.479876708633	0.65328049474692
13.437582160466	0.65336949471816
13.395552189455	0.65345790314487
13.353784320713	0.65354573590651
13.312276110124	0.65363300875875
13.271025143869	0.65371973733267
13.230029037952	0.65380593713404
13.189285437747	0.65389162354259
13.148792017544	0.65397681181134
13.108546480105	0.65406151706594
13.068546556234	0.65414575430401
13.028790004346	0.65422953839461
12.989274610052	0.65431288407756
12.949998185745	0.65439580596297
12.910958570198	0.65447831853069
12.872153628167	0.65456043612978
12.833581250000	0.65464217297807
12.795239351259	0.65472354316173
12.757125872340	0.65480456063477
12.719238778108	0.65488523921873
12.681576057530	0.65496559260222
12.644135723323	0.65504563434066
12.606915811606	0.65512537785587
12.569914381551	0.65520483643583
12.533129515050	0.65528402323436
12.496559316382	0.65536295127090
12.460201911887	0.65544163343023
12.424055449648	0.65552008246234
12.388118099174	0.65559831098215
12.352388051092	0.65567633146943
12.316863516845	0.65575415626860
12.281542728390	0.65583179758864
12.246423937908	0.65590926750301
12.211505417515	0.65598657794953
12.176785458976	0.65606374073034
12.142262373431	0.65614076751191
12.107934491115	0.65621766982497
12.073800161095	0.65629445906455
12.039857751004	0.65637114649001
12.006105646776	0.65644774322506
11.972542252396	0.65652426025787
11.939165989646	0.65660070844113
11.905975297855	0.65667709849219
11.872968633663	0.65675344099313
11.840144470774	0.65682974639095
11.807501299724	0.65690602499775
11.775037627651	0.65698228699086
11.742751978065	0.65705854241307
11.710642890625	0.65713480117287
11.678708920919	0.65721107304464
11.646948640249	0.65728736766895
11.615360635413	0.65736369455277
11.583943508501	0.65744006306985
11.552695876686	0.65751648246093
11.521616372022	0.65759296183411
11.490703641242	0.65766951016520
11.459956345566	0.65774613629803
11.429373160503	0.65782284894485
11.398952775665	0.65789965668669
11.368693894577	0.65797656797379
11.338595234493	0.65805359112598
11.308655526217	0.65813073433314
11.278873513920	0.65820800565563
11.249247954972	0.65828541302473
11.219777619760	0.65836296424312
11.190461291527	0.65844066698540
11.161297766195	0.65851852879854
11.132285852209	0.65859655710241
11.103424370370	0.65867475919031
11.074712153676	0.65875314222949
11.046148047163	0.65883171326174
11.017730907755	0.65891047920389
10.989459604106	0.65898944684843
10.961333016453	0.65906862286410
10.933350036470	0.65914801379645
10.905509567115	0.65922762606848
10.877810522496	0.65930746598125
10.850251827723	0.65938753971451
10.822832418773	0.65946785332733
10.795551242348	0.65954841275880
10.768407255747	0.65962922382863
10.741399426729	0.65971029223785
10.714526733381	0.65979162356950
10.687788163993	0.65987322328933
10.661182716927	0.65995509674646
10.634709400497	0.66003724917413
10.608367232838	0.66011968569041
10.582155241793	0.66020241129893
10.556072464789	0.66028543088959
10.530117948718	0.66036874923937
10.504290749825	0.66045237101299
10.478589933590	0.66053630076378
10.453014574616	0.66062054293435
10.427563756522	0.66070510185742
10.402236571825	0.66078998175662
10.377032121841	0.66087518674722
10.351949516575	0.66096072083700
10.326987874612	0.66104658792701
10.302146323024	0.66113279181237
10.277423997257	0.66121933618314
10.252820041040	0.66130622462511
10.228333606278	0.66139346062064
10.203963852961	0.66148104754948
10.179709949066	0.66156898868964
10.155571070461	0.66165728721823
10.131546400811	0.66174594621229
10.107635131490	0.66183496864968
10.083836461487	0.66192435740993
10.060149597315	0.66201411527509
10.036573752929	0.66210424493066
10.013108149633	0.66219474896638
9.9897520159947	0.66228562987720
9.9665045877660	0.66237689006410
9.9433651077944	0.66246853183502
9.9203328259431	0.66256055740574
9.8974069990096	0.66265296890076
9.8745868906456	0.66274576835425
9.8518717712783	0.66283895771087
9.8292609180328	0.66293253882678
9.8067536146549	0.66302651347047
9.7843491514360	0.66312088332371
9.7620468251384	0.66321564998245
9.7398459389214	0.66331081495776
9.7177458022690	0.66340637967671
9.6957457309185	0.66350234548334
9.6738450467893	0.66359871363957
9.6520430779137	0.66369548532609
9.6303391583681	0.66379266164336
9.6087326282051	0.66389024361246
9.5872228333866	0.66398823217609
9.5658091257179	0.66408662819946
9.5444908627826	0.66418543247125
9.5232674078780	0.66428464570453
9.5021381299525	0.66438426853769
9.4811024035421	0.66448430153540
9.4601596087094	0.66458474518955
9.4393091309824	0.66468559992016
9.4185503612944	0.66478686607633
9.3978826959248	0.66488854393720
9.3773055364404	0.66499063371286
9.3568182896380	0.66509313554532
9.3364203674868	0.66519604950941
9.3161111870727	0.66529937561377
9.2958901705426	0.66540311380174
9.2757567450495	0.66550726395233
9.2557103426984	0.66561182588115
9.2357504004929	0.66571679934135
9.2158763602828	0.66582218402453
9.1960876687117	0.66592797956173
9.1763837771656	0.66603418552430
9.1567641417227	0.66614080142490
9.1372282231027	0.66624782671838
9.1177754866180	0.66635526080273
9.0984054021244	0.66646310302001
9.0791174439733	0.66657135265729
9.0599110909640	0.66668000894754
9.0407858262967	0.66678907107059
9.0217411375263	0.66689853815406
9.0027765165165	0.66700840927422
8.9838914593947	0.66711868345698
8.9650854665072	0.66722935967877
8.9463580423754	0.66734043686745
8.9277086956522	0.66745191390324
8.9091369390788	0.66756378961962
8.8906422894425	0.66767606280422
8.8722242675348	0.66778873219976
8.8538823981099	0.66790179650492
8.8356162098438	0.66801525437525
8.8174252352941	0.66812910442406
8.7993090108600	0.66824334522333
8.7812670767428	0.66835797530457
8.7632989769073	0.66847299315972
8.7454042590432	0.66858839724203
8.7275824745269	0.66870418596695
8.7098331783847	0.66882035771299
8.6921559292549	0.66893691082260
8.6745502893519	0.66905384360302
8.6570158244297	0.66917115432718
8.6395521037464	0.66928884123453
8.6221587000288	0.66940690253190
8.6048351894374	0.66952533639437
8.5875811515325	0.66964414096608
8.5703961692396	0.66976331436114
8.5532798288160	0.66988285466439
8.5362317198178	0.67000275993230
8.5192514350668	0.67012302819377
8.5023385706183	0.67024365745095
8.4854927257288	0.67036464568010
8.4687135028249	0.67048599083234
8.4520005074711	0.67060769083455
8.4353533483399	0.67072974359010
8.4187716371806	0.67085214697970
8.4022549887892	0.67097489886217
8.3858030209790	0.67109799707526
8.3694153545505	0.67122143943641
8.3530916132627	0.67134522374356
8.3368314238042	0.67146934777590
8.3206344157646	0.67159380929467
8.3045002216066	0.67171860604389
8.2884284766381	0.67184373575119
8.2724188189845	0.67196919612846
8.2564708895621	0.67209498487272
8.2405843320506	0.67222109966678
8.2247587928669	0.67234753817999
8.2089939211391	0.67247429806904
8.1932893686800	0.67260137697858
8.1776447899618	0.67272877254205
8.1620598420909	0.67285648238233
8.1465341847826	0.67298450411245
8.1310674803363	0.67311283533635
8.1156593936113	0.67324147364951
8.1003095920022	0.67337041663969
8.0850177454153	0.67349966188760
8.0697835262450	0.67362920696757
8.0546066093498	0.67375904944826
8.0394866720300	0.67388918689328
8.0244233940043	0.67401961686188
8.0094164573871	0.67415033690961
7.9944655466667	0.67428134458894
7.9795703486825	0.67441263744993
7.9647305526036	0.67454421304087
7.9499458499072	0.67467606890889
7.9352159343568	0.67480820260056
7.9205405019815	0.67494061166258
7.9059192510549	0.67507329364231
7.8913518820742	0.67520624608843
7.8768380977404	0.67533946655151
7.8623776029373	0.67547295258458
7.8479701047120	0.67560670174375
7.8336153122550	0.67574071158879
7.8193129368805	0.67587497968366
7.8050626920073	0.67600950359708
7.7908642931393	0.67614428090311
7.7767174578470	0.67627930918170
7.7626219057483	0.67641458601919
7.7485773584906	0.67655010900888
7.7345835397317	0.67668587575154
7.7206401751223	0.67682188385595
7.7067469922879	0.67695813093938
7.6929037208109	0.67709461462813
7.6791100922131	0.67723133255800
7.6653658399386	0.67736828237480
7.6516706993364	0.67750546173482
7.6380244076433	0.67764286830534
7.6244267039674	0.67778049976503
7.6108773292714	0.67791835380450
7.5973760263558	0.67805642812667
7.5839225398432	0.67819472044730
7.5705166161616	0.67833322849536
7.5571580035291	0.67847195001349
7.5438464519376	0.67861088275845
7.5305817131374	0.67875002450149
7.5173635406219	0.67888937302880
7.5041916896120	0.67902892614189
7.4910659170415	0.67916868165802
7.4779859815415	0.67930863741052
7.4649516434263	0.67944879124926
7.4519626646781	0.67958914104094
7.4390188089330	0.67972968466953
7.4261198414664	0.67987042003657
7.4132655291790	0.68001134506154
7.4004556405826	0.68015245768223
7.3876899457861	0.68029375585504
7.3749682164822	0.68043523755533
7.3622902259332	0.68057690077772
7.3496557489581	0.68071874353645
7.3370645619187	0.68086076386562
7.3245164427071	0.68100295981955
7.3120111707317	0.68114532947302
7.2995485269053	0.68128787092162
7.2871282936315	0.68143058228194
7.2747502547925	0.68157346169191
7.2624141957364	0.68171650731104
7.2501199032648	0.68185971732067
7.2378671656205	0.68200308992420
7.2256557724753	0.68214662334736
7.2134855149182	0.68229031583843
7.2013561854432	0.68243416566846
7.1892675779376	0.68257817113149
7.1772194876706	0.68272233054477
7.1652117112811	0.68286664224894
7.1532440467669	0.68301110460824
7.1413162934731	0.68315571601069
7.1294282520809	0.68330047486828
7.1175797245964	0.68344537961715
7.1057705143399	0.68359042871772
7.0940004259347	0.68373562065489
7.0822692652965	0.68388095393818
7.0705768396226	0.68402642710183
7.0589229573817	0.68417203870502
7.0473074283028	0.68431778733192
7.0357300633654	0.68446367159186
7.0241906747891	0.68460969011943
7.0126890760234	0.68475584157459
7.0012250817375	0.68490212464277
6.9897985078107	0.68504853803496
6.9784091713222	0.68519508048780
6.9670568905415	0.68534175076367
6.9557414849188	0.68548854765075
6.9444627750753	0.68563546996308
6.9332205827937	0.68578251654065
6.9220147310090	0.68592968624942
6.9108450437990	0.68607697798137
6.8997113463751	0.68622439065457
6.8886134650735	0.68637192321316
6.8775512273457	0.68651957462742
6.8665244617499	0.68666734389377
6.8555329979419	0.68681523003477
6.8445766666667	0.68696323209917
6.8336552997493	0.68711134916184
6.8227687300865	0.68725958032384
6.8119167916383	0.68740792471233
6.8010993194192	0.68755638148060
6.7903161494904	0.68770494980803
6.7795671189507	0.68785362890005
6.7688520659291	0.68800241798812
6.7581708295762	0.68815131632965
6.7475232500563	0.68830032320797
6.7369091685393	0.68844943793227
6.7263284271932	0.68859865983754
6.7157808691756	0.68874798828450
6.7052663386267	0.68889742265948
6.6947846806610	0.68904696237442
6.6843357413601	0.68919660686672
6.6739193677649	0.68934635559914
6.6635354078684	0.68949620805976
6.6531837106081	0.68964616376180
6.6428641258586	0.68979622224356
6.6325765044248	0.68994638306830
6.6223206980340	0.69009664582407
6.6120965593295	0.69024701012366
6.6019039418630	0.69039747560439
6.5917427000879	0.69054804192801
6.5816126893524	0.69069870878054
6.5715137658922	0.69084947587217
6.5614457868243	0.69100034293701
6.5514086101399	0.69115130973301
6.5414020946978	0.69130237604177
6.5314261002179	0.69145354166837
6.5214804872743	0.69160480644117
6.5115651172893	0.69175617021169
6.5016798525266	0.69190763285435
6.4918245560849	0.69205919426634
6.4819990918919	0.69221085436739
6.4722033246978	0.69236261309959
6.4624371200690	0.69251447042719
6.4527003443823	0.69266642633635
6.4429928648184	0.69281848083500
6.4333145493562	0.69297063395253
6.4236652667667	0.69312288573968
6.4140448866068	0.69327523626819
6.4044532792138	0.69342768563069
6.3948903156997	0.69358023394036
6.3853558679446	0.69373288133077
6.3758498085921	0.69388562795561
6.3663720110427	0.69403847398842
6.3569223494487	0.69419141962239
6.3475006987084	0.69434446507005
6.3381069344609	0.69449761056307
6.3287409330800	0.69465085635194
6.3194025716695	0.69480420270576
6.3100917280572	0.69495764991193
6.3008082807902	0.69511119827590
6.2915521091291	0.69526484812091
6.2823230930427	0.69541859978766
6.2731211132036	0.69557245363409
6.2639460509820	0.69572641003504
6.2547977884415	0.69588046938201
6.2456762083333	0.69603463208285
6.2365811940919	0.69618889856144
6.2275126298297	0.69634326925747
6.2184704003319	0.69649774462602
6.2094543910522	0.69665232513741
6.2004644881075	0.69680701127674
6.1915005782734	0.69696180354371
6.1825625489792	0.69711670245224
6.1736502883031	0.69727170853018
6.1647636849681	0.69742682231899
6.1559026283368	0.69758204437345
6.1470670084068	0.69773737526131
6.1382567158067	0.69789281556296
6.1294716417910	0.69804836587115
6.1207116782360	0.69820402679066
6.1119767176351	0.69835979893793
6.1032666530945	0.69851568294078
6.0945813783289	0.69867167943806
6.0859207876573	0.69882778907933
6.0772847759984	0.69898401252450
6.0686732388664	0.69914035044355
6.0600860723671	0.69929680351613
6.0515231731934	0.69945337243128
6.0429844386212	0.69961005788706
6.0344697665056	0.69976686059022
6.0259790552764	0.69992378125588
6.0175122039342	0.70008082060714
6.0090691120465	0.70023797937480
6.0006496797438	0.70039525829697
5.9922538077154	0.70055265811876
5.9838813972056	0.70071017959190
5.9755323500100	0.70086782347445
5.9672065684713	0.70102559053040
5.9589039554760	0.70118348152935
5.9506244144502	0.70134149724618
5.9423678493558	0.70149963846069
5.9341341646873	0.70165790595722
5.9259232654675	0.70181630052439
5.9177350572444	0.70197482295465
5.9095694460871	0.70213347404403
5.9014263385827	0.70229225459173
5.8933056418321	0.70245116539978
5.8852072634472	0.70261020727275
5.8771311115468	0.70276938101734
5.8690770947533	0.70292868744207
5.8610451221896	0.70308812735692
5.8530351034752	0.70324770157300
5.8450469487229	0.70340741090221
5.8370805685358	0.70356725615689
5.8291358740035	0.70372723814947
5.8212127766990	0.70388735769214
5.8133111886756	0.70404761559653
5.8054310224632	0.70420801267334
5.7975721910656	0.70436854973201
5.7897346079567	0.70452922758039
5.7819181870781	0.70469004702443
5.7741228428351	0.70485100886780
5.7663484900942	0.70501211391157
5.7585950441798	0.70517336295392
5.7508624208709	0.70533475678977
5.7431505363985	0.70549629621044
5.7354593074421	0.70565798200339
5.7277886511272	0.70581981495182
5.7201384850219	0.70598179583440
5.7125087271341	0.70614392542491
5.7048992959087	0.70630620449198
5.6973101102242	0.70646863379870
5.6897410893908	0.70663121410237
5.6821921531463	0.70679394615414
5.6746632216544	0.70695683069872
5.6671542155009	0.70711986847409
5.6596650556919	0.70728306021116
5.6521956636501	0.70744640663350
5.6447459612126	0.70760990845701
5.6373158706281	0.70777356638964
5.6299053145540	0.70793738113107
5.6225142160540	0.70810135337248
5.6151424985952	0.70826548379618
5.6077900860456	0.70842977307537
5.6004569026714	0.70859422187384
5.5931428731343	0.70875883084570
5.5858479224893	0.70892360063508
5.5785719761816	0.70908853187589
5.5713149600446	0.70925362519150
5.5640768002970	0.70941888119452
5.5568574235403	0.70958430048647
5.5496567567568	0.70974988365760
5.5424747273063	0.70991563128656
5.5353112629247	0.71008154394016
5.5281662917204	0.71024762217314
5.5210397421731	0.71041386652790
5.5139315431304	0.71058027753426
5.5068416238060	0.71074685570922
5.4997699137773	0.71091360155669
5.4927163429828	0.71108051556730
5.4856808417200	0.71124759821816
5.4786633406433	0.71141484997258
5.4716637707611	0.71158227127992
5.4646820634342	0.71174986257532
5.4577181503732	0.71191762427949
5.4507719636364	0.71208555679852
5.4438434356274	0.71225366052363
5.4369324990932	0.71242193583100
5.4300390871219	0.71259038308158
5.4231631331404	0.71275900262083
5.4163045709124	0.71292779477860
5.4094633345363	0.71309675986890
5.4026393584430	0.71326589818971
5.3958325773938	0.71343521002282
5.3890429264785	0.71360469563368
5.3822703411131	0.71377435527114
5.3755147570378	0.71394418916739
5.3687761103152	0.71411419753772
5.3620543373278	0.71428438058039
5.3553493747767	0.71445473847647
5.3486611596789	0.71462527138971
5.3419896293656	0.71479597946637
5.3353347214807	0.71496686283507
5.3286963739780	0.71513792160671
5.3220745251198	0.71530915587426
5.3154691134752	0.71548056571270
5.3088800779175	0.71565215117886
5.3023073576229	0.71582391231133
5.2957508920685	0.71599584913031
5.2892106210303	0.71616796163754
5.2826864845815	0.71634024981618
5.2761784230905	0.71651271363070
5.2696863772192	0.71668535302681
5.2632102879213	0.71685816793137
5.2567500964405	0.71703115825226
5.2503057443082	0.71720432387839
5.2438771733427	0.71737766467954
5.2374643256464	0.71755118050632
5.2310671436050	0.71772487119012
5.2246855698850	0.71789873654306
5.2183195474326	0.71807277635789
5.2119690194715	0.71824699040798
5.2056339295016	0.71842137844725
5.1993142212973	0.71859594021017
5.1930098389052	0.71877067541168
5.1867207266436	0.71894558374719
5.1804468290997	0.71912066489253
5.1741880911288	0.71929591850398
5.1679444578521	0.71947134421818
5.1617158746556	0.71964694165221
5.1555022871883	0.71982271040350
5.1493036413604	0.71999865004990
5.1431198833419	0.72017476014964
5.1369509595613	0.72035104024137
5.1307968167037	0.72052748984417
5.1246574017094	0.72070410845755
5.1185326617722	0.72088089556150
5.1124225443383	0.72105785061652
5.1063269971044	0.72123497306364
5.1002459680163	0.72141226232450
5.0941794052676	0.72158971780134
5.0881272572980	0.72176733887709
5.0820894727920	0.72194512491543
5.0760660006773	0.72212307526083
5.0700567901235	0.72230118923864
5.0640617905405	0.72247946615514
5.0580809515775	0.72265790529762
5.0521142231210	0.72283650593449
5.0461615552937	0.72301526731534
5.0402228984533	0.72319418867102
5.0342982031906	0.72337326921379
5.0283874203287	0.72355250813735
5.0224905009214	0.72373190461702
5.0166073962517	0.72391145780979
5.0107380578305	0.72409116685448
5.0048824373957	0.72427103087184
4.9990404869101	0.72445104896469
4.9932121585610	0.72463122021803
4.9873974047579	0.72481154369920
4.9815961781323	0.72499201845800
4.9758084315353	0.72517264352687
4.9700341180371	0.72535341792100
4.9642731909256	0.72553434063850
4.9585256037049	0.72571541066058
4.9527913100942	0.72589662695169
4.9470702640264	0.72607798845968
4.9413624196473	0.72625949411603
4.9356677313138	0.72644114283595
4.9299861535932	0.72662293351864
4.9243176412615	0.72680486504741
4.9186621493027	0.72698693628992
4.9130196329072	0.72716914609836
4.9073900474709	0.72735149330965
4.9017733485939	0.72753397674565
4.8961694920790	0.72771659521335
4.8905784339315	0.72789934750512
4.8850001303569	0.72808223239891
4.8794345377604	0.72826524865845
4.8738816127459	0.72844839503352
4.8683413121143	0.72863167026015
4.8628135928629	0.72881507306086
4.8572984121841	0.72899860214492
4.8517957274640	0.72918225620856
4.8463054962819	0.72936603393525
4.8408276764088	0.72954993399591
4.8353622258065	0.72973395504920
