#Parameters = {thARC=0; nARC=2.75; thsub=1; p=1; nSub=4}
#"Wavelength / um"	"T (691) [Real Part]"
#---------------------------------------
14.989622900000	0.64000007003501
14.937342202292	0.64002788474255
14.885424925521	0.64005490455979
14.833867293419	0.64008114075557
14.782665581854	0.64010660452820
14.731816117936	0.64013130700500
14.681315279138	0.64015525924188
14.631159492435	0.64017847222291
14.581345233463	0.64020095685990
14.531869025691	0.64022272399200
14.482727439614	0.64024378438533
14.433917091960	0.64026414873260
14.385434644914	0.64028382765276
14.337276805356	0.64030283169065
14.289440324118	0.64032117131664
14.241921995249	0.64033885692637
14.194718655303	0.64035589884040
14.147827182633	0.64037230730391
14.101244496707	0.64038809248645
14.054967557431	0.64040326448166
14.008993364486	0.64041783330699
13.963318956684	0.64043180890349
13.917941411328	0.64044520113555
13.872857843591	0.64045801979070
13.828065405904	0.64047027457940
13.783561287356	0.64048197513482
13.739342713107	0.64049313101269
13.695406943810	0.64050375169109
13.651751275046	0.64051384657032
13.608373036768	0.64052342497273
13.565269592760	0.64053249614261
13.522438340099	0.64054106924602
13.479876708633	0.64054915337070
13.437582160466	0.64055675752596
13.395552189455	0.64056389064260
13.353784320713	0.64057056157278
13.312276110124	0.64057677909002
13.271025143869	0.64058255188906
13.230029037952	0.64058788858588
13.189285437747	0.64059279771758
13.148792017544	0.64059728774243
13.108546480105	0.64060136703980
13.068546556234	0.64060504391016
13.028790004346	0.64060832657508
12.989274610052	0.64061122317722
12.949998185745	0.64061374178039
12.910958570198	0.64061589036956
12.872153628167	0.64061767685086
12.833581250000	0.64061910905168
12.795239351259	0.64062019472070
12.757125872340	0.64062094152797
12.719238778108	0.64062135706496
12.681576057530	0.64062144884466
12.644135723323	0.64062122430168
12.606915811606	0.64062069079232
12.569914381551	0.64061985559471
12.533129515050	0.64061872590893
12.496559316382	0.64061730885710
12.460201911887	0.64061561148355
12.424055449648	0.64061364075496
12.388118099174	0.64061140356048
12.352388051092	0.64060890671191
12.316863516845	0.64060615694389
12.281542728390	0.64060316091402
12.246423937908	0.64059992520309
12.211505417515	0.64059645631523
12.176785458976	0.64059276067816
12.142262373431	0.64058884464332
12.107934491115	0.64058471448614
12.073800161095	0.64058037640624
12.039857751004	0.64057583652765
12.006105646776	0.64057110089905
11.972542252396	0.64056617549399
11.939165989646	0.64056106621115
11.905975297855	0.64055577887459
11.872968633663	0.64055031923403
11.840144470774	0.64054469296505
11.807501299724	0.64053890566943
11.775037627651	0.64053296287539
11.742751978065	0.64052687003788
11.710642890625	0.64052063253886
11.678708920919	0.64051425568761
11.646948640249	0.64050774472103
11.615360635413	0.64050110480391
11.583943508501	0.64049434102928
11.552695876686	0.64048745841874
11.521616372022	0.64048046192271
11.490703641242	0.64047335642082
11.459956345566	0.64046614672223
11.429373160503	0.64045883756594
11.398952775665	0.64045143362118
11.368693894577	0.64044393948768
11.338595234493	0.64043635969611
11.308655526217	0.64042869870837
11.278873513920	0.64042096091797
11.249247954972	0.64041315065040
11.219777619760	0.64040527216350
11.190461291527	0.64039732964780
11.161297766195	0.64038932722696
11.132285852209	0.64038126895808
11.103424370370	0.64037315883215
11.074712153676	0.64036500077436
11.046148047163	0.64035679864459
11.017730907755	0.64034855623772
10.989459604106	0.64034027728406
10.961333016453	0.64033196544979
10.933350036470	0.64032362433728
10.905509567115	0.64031525748561
10.877810522496	0.64030686837086
10.850251827723	0.64029846040665
10.822832418773	0.64029003694445
10.795551242348	0.64028160127406
10.768407255747	0.64027315662405
10.741399426729	0.64026470616212
10.714526733381	0.64025625299560
10.687788163993	0.64024780017184
10.661182716927	0.64023935067866
10.634709400497	0.64023090744477
10.608367232838	0.64022247334025
10.582155241793	0.64021405117695
10.556072464789	0.64020564370895
10.530117948718	0.64019725363300
10.504290749825	0.64018888358900
10.478589933590	0.64018053616040
10.453014574616	0.64017221387469
10.427563756522	0.64016391920382
10.402236571825	0.64015565456470
10.377032121841	0.64014742231963
10.351949516575	0.64013922477675
10.326987874612	0.64013106419053
10.302146323024	0.64012294276219
10.277423997257	0.64011486264021
10.252820041040	0.64010682592076
10.228333606278	0.64009883464819
10.203963852961	0.64009089081547
10.179709949066	0.64008299636467
10.155571070461	0.64007515318746
10.131546400811	0.64006736312552
10.107635131490	0.64005962797105
10.083836461487	0.64005194946724
10.060149597315	0.64004432930873
10.036573752929	0.64003676914209
10.013108149633	0.64002927056630
9.9897520159947	0.64002183513321
9.9665045877660	0.64001446434801
9.9433651077944	0.64000715966974
9.9203328259431	0.63999992251172
9.8974069990096	0.63999275424205
9.8745868906456	0.63998565618411
9.8518717712783	0.63997862961697
9.8292609180328	0.63997167577593
9.8067536146549	0.63996479585296
9.7843491514360	0.63995799099721
9.7620468251384	0.63995126231544
9.7398459389214	0.63994461087252
9.7177458022690	0.63993803769194
9.6957457309185	0.63993154375622
9.6738450467893	0.63992513000742
9.6520430779137	0.63991879734763
9.6303391583681	0.63991254663943
9.6087326282051	0.63990637870634
9.5872228333866	0.63990029433333
9.5658091257179	0.63989429426729
9.5444908627826	0.63988837921747
9.5232674078780	0.63988254985600
9.5021381299525	0.63987680681833
9.4811024035421	0.63987115070369
9.4601596087094	0.63986558207559
9.4393091309824	0.63986010146229
9.4185503612944	0.63985470935723
9.3978826959248	0.63984940621952
9.3773055364404	0.63984419247445
9.3568182896380	0.63983906851386
9.3364203674868	0.63983403469669
9.3161111870727	0.63982909134940
9.2958901705426	0.63982423876644
9.2757567450495	0.63981947721074
9.2557103426984	0.63981480691409
9.2357504004929	0.63981022807770
9.2158763602828	0.63980574087259
9.1960876687117	0.63980134544007
9.1763837771656	0.63979704189216
9.1567641417227	0.63979283031210
9.1372282231027	0.63978871075477
9.1177754866180	0.63978468324712
9.0984054021244	0.63978074778866
9.0791174439733	0.63977690435187
9.0599110909640	0.63977315288267
9.0407858262967	0.63976949330085
9.0217411375263	0.63976592550052
9.0027765165165	0.63976244935053
8.9838914593947	0.63975906469492
8.9650854665072	0.63975577135338
8.9463580423754	0.63975256912165
8.9277086956522	0.63974945777195
8.9091369390788	0.63974643705344
8.8906422894425	0.63974350669264
8.8722242675348	0.63974066639382
8.8538823981099	0.63973791583949
8.8356162098438	0.63973525469074
8.8174252352941	0.63973268258775
8.7993090108600	0.63973019915014
8.7812670767428	0.63972780397741
8.7632989769073	0.63972549664935
8.7454042590432	0.63972327672646
8.7275824745269	0.63972114375036
8.7098331783847	0.63971909724417
8.6921559292549	0.63971713671296
8.6745502893519	0.63971526164410
8.6570158244297	0.63971347150770
8.6395521037464	0.63971176575700
8.6221587000288	0.63971014382875
8.6048351894374	0.63970860514362
8.5875811515325	0.63970714910656
8.5703961692396	0.63970577510724
8.5532798288160	0.63970448252038
8.5362317198178	0.63970327070619
8.5192514350668	0.63970213901067
8.5023385706183	0.63970108676608
8.4854927257288	0.63970011329124
8.4687135028249	0.63969921789196
8.4520005074711	0.63969839986134
8.4353533483399	0.63969765848023
8.4187716371806	0.63969699301751
8.4022549887892	0.63969640273050
8.3858030209790	0.63969588686529
8.3694153545505	0.63969544465712
8.3530916132627	0.63969507533072
8.3368314238042	0.63969477810068
8.3206344157646	0.63969455217175
8.3045002216066	0.63969439673924
8.2884284766381	0.63969431098933
8.2724188189845	0.63969429409943
8.2564708895621	0.63969434523850
8.2405843320506	0.63969446356737
8.2247587928669	0.63969464823910
8.2089939211391	0.63969489839932
8.1932893686800	0.63969521318650
8.1776447899618	0.63969559173231
8.1620598420909	0.63969603316195
8.1465341847826	0.63969653659441
8.1310674803363	0.63969710114287
8.1156593936113	0.63969772591492
8.1003095920022	0.63969841001292
8.0850177454153	0.63969915253430
8.0697835262450	0.63969995257185
8.0546066093498	0.63970080921401
8.0394866720300	0.63970172154519
8.0244233940043	0.63970268864603
8.0094164573871	0.63970370959372
7.9944655466667	0.63970478346226
7.9795703486825	0.63970590932276
7.9647305526036	0.63970708624370
7.9499458499072	0.63970831329124
7.9352159343568	0.63970958952946
7.9205405019815	0.63971091402064
7.9059192510549	0.63971228582552
7.8913518820742	0.63971370400360
7.8768380977404	0.63971516761335
7.8623776029373	0.63971667571250
7.8479701047120	0.63971822735828
7.8336153122550	0.63971982160767
7.8193129368805	0.63972145751767
7.8050626920073	0.63972313414551
7.7908642931393	0.63972485054894
7.7767174578470	0.63972660578640
7.7626219057483	0.63972839891731
7.7485773584906	0.63973022900231
7.7345835397317	0.63973209510342
7.7206401751223	0.63973399628434
7.7067469922879	0.63973593161064
7.6929037208109	0.63973790014998
7.6791100922131	0.63973990097232
7.6653658399386	0.63974193315016
7.6516706993364	0.63974399575870
7.6380244076433	0.63974608787612
7.6244267039674	0.63974820858369
7.6108773292714	0.63975035696608
7.5973760263558	0.63975253211144
7.5839225398432	0.63975473311169
7.5705166161616	0.63975695906267
7.5571580035291	0.63975920906430
7.5438464519376	0.63976148222083
7.5305817131374	0.63976377764097
7.5173635406219	0.63976609443808
7.5041916896120	0.63976843173034
7.4910659170415	0.63977078864096
7.4779859815415	0.63977316429828
7.4649516434263	0.63977555783600
7.4519626646781	0.63977796839330
7.4390188089330	0.63978039511502
7.4261198414664	0.63978283715181
7.4132655291790	0.63978529366029
7.4004556405826	0.63978776380316
7.3876899457861	0.63979024674942
7.3749682164822	0.63979274167445
7.3622902259332	0.63979524776016
7.3496557489581	0.63979776419516
7.3370645619187	0.63980029017487
7.3245164427071	0.63980282490165
7.3120111707317	0.63980536758492
7.2995485269053	0.63980791744131
7.2871282936315	0.63981047369476
7.2747502547925	0.63981303557666
7.2624141957364	0.63981560232593
7.2501199032648	0.63981817318917
7.2378671656205	0.63982074742075
7.2256557724753	0.63982332428293
7.2134855149182	0.63982590304593
7.2013561854432	0.63982848298808
7.1892675779376	0.63983106339589
7.1772194876706	0.63983364356412
7.1652117112811	0.63983622279593
7.1532440467669	0.63983880040293
7.1413162934731	0.63984137570527
7.1294282520809	0.63984394803172
7.1175797245964	0.63984651671976
7.1057705143399	0.63984908111566
7.0940004259347	0.63985164057454
7.0822692652965	0.63985419446046
7.0705768396226	0.63985674214647
7.0589229573817	0.63985928301468
7.0473074283028	0.63986181645634
7.0357300633654	0.63986434187186
7.0241906747891	0.63986685867093
7.0126890760234	0.63986936627252
7.0012250817375	0.63987186410494
6.9897985078107	0.63987435160592
6.9784091713222	0.63987682822263
6.9670568905415	0.63987929341173
6.9557414849188	0.63988174663940
6.9444627750753	0.63988418738141
6.9332205827937	0.63988661512313
6.9220147310090	0.63988902935955
6.9108450437990	0.63989142959535
6.8997113463751	0.63989381534490
6.8886134650735	0.63989618613230
6.8775512273457	0.63989854149137
6.8665244617499	0.63990088096574
6.8555329979419	0.63990320410878
6.8445766666667	0.63990551048369
6.8336552997493	0.63990779966346
6.8227687300865	0.63991007123091
6.8119167916383	0.63991232477870
6.8010993194192	0.63991455990931
6.7903161494904	0.63991677623507
6.7795671189507	0.63991897337815
6.7688520659291	0.63992115097055
6.7581708295762	0.63992330865411
6.7475232500563	0.63992544608049
6.7369091685393	0.63992756291119
6.7263284271932	0.63992965881750
6.7157808691756	0.63993173348051
6.7052663386267	0.63993378659109
6.6947846806610	0.63993581784988
6.6843357413601	0.63993782696727
6.6739193677649	0.63993981366334
6.6635354078684	0.63994177766791
6.6531837106081	0.63994371872044
6.6428641258586	0.63994563657006
6.6325765044248	0.63994753097549
6.6223206980340	0.63994940170506
6.6120965593295	0.63995124853661
6.6019039418630	0.63995307125753
6.5917427000879	0.63995486966466
6.5816126893524	0.63995664356430
6.5715137658922	0.63995839277210
6.5614457868243	0.63996011711309
6.5514086101399	0.63996181642161
6.5414020946978	0.63996349054122
6.5314261002179	0.63996513932472
6.5214804872743	0.63996676263404
6.5115651172893	0.63996836034023
6.5016798525266	0.63996993232337
6.4918245560849	0.63997147847255
6.4819990918919	0.63997299868578
6.4722033246978	0.63997449286994
6.4624371200690	0.63997596094073
6.4527003443823	0.63997740282259
6.4429928648184	0.63997881844866
6.4333145493562	0.63998020776068
6.4236652667667	0.63998157070894
6.4140448866068	0.63998290725223
6.4044532792138	0.63998421735774
6.3948903156997	0.63998550100099
6.3853558679446	0.63998675816577
6.3758498085921	0.63998798884407
6.3663720110427	0.63998919303598
6.3569223494487	0.63999037074962
6.3475006987084	0.63999152200110
6.3381069344609	0.63999264681437
6.3287409330800	0.63999374522118
6.3194025716695	0.63999481726102
6.3100917280572	0.63999586298097
6.3008082807902	0.63999688243568
6.2915521091291	0.63999787568725
6.2823230930427	0.63999884280514
6.2731211132036	0.63999978386609
6.2639460509820	0.64000069895404
6.2547977884415	0.64000158816003
6.2456762083333	0.64000245158208
6.2365811940919	0.64000328932518
6.2275126298297	0.64000410150107
6.2184704003319	0.64000488822828
6.2094543910522	0.64000564963192
6.2004644881075	0.64000638584368
6.1915005782734	0.64000709700163
6.1825625489792	0.64000778325023
6.1736502883031	0.64000844474015
6.1647636849681	0.64000908162820
6.1559026283368	0.64000969407723
6.1470670084068	0.64001028225604
6.1382567158067	0.64001084633923
6.1294716417910	0.64001138650716
6.1207116782360	0.64001190294581
6.1119767176351	0.64001239584668
6.1032666530945	0.64001286540668
6.0945813783289	0.64001331182805
6.0859207876573	0.64001373531823
6.0772847759984	0.64001413608974
6.0686732388664	0.64001451436012
6.0600860723671	0.64001487035179
6.0515231731934	0.64001520429193
6.0429844386212	0.64001551641241
6.0344697665056	0.64001580694965
6.0259790552764	0.64001607614453
6.0175122039342	0.64001632424225
6.0090691120465	0.64001655149227
6.0006496797438	0.64001675814815
5.9922538077154	0.64001694446748
5.9838813972056	0.64001711071173
5.9755323500100	0.64001725714617
5.9672065684713	0.64001738403976
5.9589039554760	0.64001749166502
5.9506244144502	0.64001758029790
5.9423678493558	0.64001765021774
5.9341341646873	0.64001770170709
5.9259232654675	0.64001773505161
5.9177350572444	0.64001775054000
5.9095694460871	0.64001774846382
5.9014263385827	0.64001772911746
5.8933056418321	0.64001769279796
5.8852072634472	0.64001763980491
5.8771311115468	0.64001757044038
5.8690770947533	0.64001748500877
5.8610451221896	0.64001738381670
5.8530351034752	0.64001726717293
5.8450469487229	0.64001713538819
5.8370805685358	0.64001698877515
5.8291358740035	0.64001682764822
5.8212127766990	0.64001665232354
5.8133111886756	0.64001646311875
5.8054310224632	0.64001626035301
5.7975721910656	0.64001604434678
5.7897346079567	0.64001581542177
5.7819181870781	0.64001557390082
5.7741228428351	0.64001532010780
5.7663484900942	0.64001505436748
5.7585950441798	0.64001477700543
5.7508624208709	0.64001448834792
5.7431505363985	0.64001418872182
5.7354593074421	0.64001387845447
5.7277886511272	0.64001355787361
5.7201384850219	0.64001322730722
5.7125087271341	0.64001288708347
5.7048992959087	0.64001253753060
5.6973101102242	0.64001217897681
5.6897410893908	0.64001181175013
5.6821921531463	0.64001143617839
5.6746632216544	0.64001105258903
5.6671542155009	0.64001066130909
5.6596650556919	0.64001026266503
5.6521956636501	0.64000985698267
5.6447459612126	0.64000944458710
5.6373158706281	0.64000902580255
5.6299053145540	0.64000860095232
5.6225142160540	0.64000817035867
5.6151424985952	0.64000773434274
5.6077900860456	0.64000729322441
5.6004569026714	0.64000684732229
5.5931428731343	0.64000639695354
5.5858479224893	0.64000594243382
5.5785719761816	0.64000548407719
5.5713149600446	0.64000502219604
5.5640768002970	0.64000455710097
5.5568574235403	0.64000408910071
5.5496567567568	0.64000361850204
5.5424747273063	0.64000314560971
5.5353112629247	0.64000267072633
5.5281662917204	0.64000219415231
5.5210397421731	0.64000171618575
5.5139315431304	0.64000123712241
5.5068416238060	0.64000075725554
5.4997699137773	0.64000027687589
5.4927163429828	0.63999979627158
5.4856808417200	0.63999931572803
5.4786633406433	0.63999883552790
5.4716637707611	0.63999835595097
5.4646820634342	0.63999787727414
5.4577181503732	0.63999739977127
5.4507719636364	0.63999692371317
5.4438434356274	0.63999644936750
5.4369324990932	0.63999597699872
5.4300390871219	0.63999550686799
5.4231631331404	0.63999503923313
5.4163045709124	0.63999457434854
5.4094633345363	0.63999411246515
5.4026393584430	0.63999365383032
5.3958325773938	0.63999319868781
5.3890429264785	0.63999274727773
5.3822703411131	0.63999229983643
5.3755147570378	0.63999185659649
5.3687761103152	0.63999141778662
5.3620543373278	0.63999098363166
5.3553493747767	0.63999055435244
5.3486611596789	0.63999013016583
5.3419896293656	0.63998971128460
5.3353347214807	0.63998929791740
5.3286963739780	0.63998889026873
5.3220745251198	0.63998848853888
5.3154691134752	0.63998809292384
5.3088800779175	0.63998770361533
5.3023073576229	0.63998732080070
5.2957508920685	0.63998694466290
5.2892106210303	0.63998657538045
5.2826864845815	0.63998621312738
5.2761784230905	0.63998585807323
5.2696863772192	0.63998551038295
5.2632102879213	0.63998517021691
5.2567500964405	0.63998483773088
5.2503057443082	0.63998451307595
5.2438771733427	0.63998419639851
5.2374643256464	0.63998388784024
5.2310671436050	0.63998358753809
5.2246855698850	0.63998329562420
5.2183195474326	0.63998301222592
5.2119690194715	0.63998273746579
5.2056339295016	0.63998247146149
5.1993142212973	0.63998221432580
5.1930098389052	0.63998196616664
5.1867207266436	0.63998172708702
5.1804468290997	0.63998149718500
5.1741880911288	0.63998127655372
5.1679444578521	0.63998106528134
5.1617158746556	0.63998086345106
5.1555022871883	0.63998067114109
5.1493036413604	0.63998048842467
5.1431198833419	0.63998031537001
5.1369509595613	0.63998015204033
5.1307968167037	0.63997999849382
5.1246574017094	0.63997985478367
5.1185326617722	0.63997972095805
5.1124225443383	0.63997959706009
5.1063269971044	0.63997948312792
5.1002459680163	0.63997937919462
5.0941794052676	0.63997928528830
5.0881272572980	0.63997920143202
5.0820894727920	0.63997912764385
5.0760660006773	0.63997906393686
5.0700567901235	0.63997901031913
5.0640617905405	0.63997896679376
5.0580809515775	0.63997893335889
5.0521142231210	0.63997891000770
5.0461615552937	0.63997889672844
5.0402228984533	0.63997889350442
5.0342982031906	0.63997890031406
5.0283874203287	0.63997891713091
5.0224905009214	0.63997894392361
5.0166073962517	0.63997898065600
5.0107380578305	0.63997902728708
5.0048824373957	0.63997908377106
4.9990404869101	0.63997915005738
4.9932121585610	0.63997922609072
4.9873974047579	0.63997931181108
4.9815961781323	0.63997940715376
4.9758084315353	0.63997951204940
4.9700341180371	0.63997962642403
4.9642731909256	0.63997975019910
4.9585256037049	0.63997988329150
4.9527913100942	0.63998002561361
4.9470702640264	0.63998017707335
4.9413624196473	0.63998033757418
4.9356677313138	0.63998050701520
4.9299861535932	0.63998068529112
4.9243176412615	0.63998087229237
4.9186621493027	0.63998106790511
4.9130196329072	0.63998127201126
4.9073900474709	0.63998148448860
4.9017733485939	0.63998170521078
4.8961694920790	0.63998193404735
4.8905784339315	0.63998217086388
4.8850001303569	0.63998241552194
4.8794345377604	0.63998266787920
4.8738816127459	0.63998292778944
4.8683413121143	0.63998319510266
4.8628135928629	0.63998346966511
4.8572984121841	0.63998375131933
4.8517957274640	0.63998403990423
4.8463054962819	0.63998433525516
4.8408276764088	0.63998463720394
4.8353622258065	0.63998494557894
