#Parameters = {thARC=1; nARC=2.75; thsub=1; p=1; nSub=4}
#"Wavelength / um"	"T (696) [Real Part]"
#---------------------------------------
14.989622900000	0.84722698340540
14.937342202292	0.84822894222979
14.885424925521	0.84922485521175
14.833867293419	0.85021464060408
14.782665581854	0.85119821642125
14.731816117936	0.85217550045627
14.681315279138	0.85314641029785
14.631159492435	0.85411086334789
14.581345233463	0.85506877683919
14.531869025691	0.85602006785347
14.482727439614	0.85696465333966
14.433917091960	0.85790245013241
14.385434644914	0.85883337497096
14.337276805356	0.85975734451818
14.289440324118	0.86067427537987
14.241921995249	0.86158408412438
14.194718655303	0.86248668730237
14.147827182633	0.86338200146689
14.101244496707	0.86426994319365
14.054967557431	0.86515042910149
14.008993364486	0.86602337587315
13.963318956684	0.86688870027618
13.917941411328	0.86774631918405
13.872857843591	0.86859614959752
13.828065405904	0.86943810866613
13.783561287356	0.87027211370992
13.739342713107	0.87109808224133
13.695406943810	0.87191593198722
13.651751275046	0.87272558091110
13.608373036768	0.87352694723548
13.565269592760	0.87431994946437
13.522438340099	0.87510450640595
13.479876708633	0.87588053719532
13.437582160466	0.87664796131737
13.395552189455	0.87740669862980
13.353784320713	0.87815666938621
13.312276110124	0.87889779425927
13.271025143869	0.87962999436400
13.230029037952	0.88035319128110
13.189285437747	0.88106730708036
13.148792017544	0.88177226434409
13.108546480105	0.88246798619063
13.068546556234	0.88315439629786
13.028790004346	0.88383141892676
12.989274610052	0.88449897894494
12.949998185745	0.88515700185023
12.910958570198	0.88580541379417
12.872153628167	0.88644414160560
12.833581250000	0.88707311281407
12.795239351259	0.88769225567336
12.757125872340	0.88830149918483
12.719238778108	0.88890077312075
12.681576057530	0.88949000804754
12.644135723323	0.89006913534895
12.606915811606	0.89063808724912
12.569914381551	0.89119679683550
12.533129515050	0.89174519808169
12.496559316382	0.89228322587017
12.460201911887	0.89281081601478
12.424055449648	0.89332790528315
12.388118099174	0.89383443141892
12.352388051092	0.89433033316377
12.316863516845	0.89481555027926
12.281542728390	0.89529002356853
12.246423937908	0.89575369489763
12.211505417515	0.89620650721685
12.176785458976	0.89664840458159
12.142262373431	0.89707933217312
12.107934491115	0.89749923631905
12.073800161095	0.89790806451349
12.039857751004	0.89830576543698
12.006105646776	0.89869228897611
11.972542252396	0.89906758624280
11.939165989646	0.89943160959333
11.905975297855	0.89978431264699
11.872968633663	0.90012565030440
11.840144470774	0.90045557876555
11.807501299724	0.90077405554738
11.775037627651	0.90108103950106
11.742751978065	0.90137649082891
11.710642890625	0.90166037110085
11.678708920919	0.90193264327054
11.646948640249	0.90219327169108
11.615360635413	0.90244222213028
11.583943508501	0.90267946178555
11.552695876686	0.90290495929831
11.521616372022	0.90311868476800
11.490703641242	0.90332060976559
11.459956345566	0.90351070734671
11.429373160503	0.90368895206424
11.398952775665	0.90385531998047
11.368693894577	0.90400978867877
11.338595234493	0.90415233727477
11.308655526217	0.90428294642705
11.278873513920	0.90440159834734
11.249247954972	0.90450827681020
11.219777619760	0.90460296716216
11.190461291527	0.90468565633045
11.161297766195	0.90475633283105
11.132285852209	0.90481498677637
11.103424370370	0.90486160988226
11.074712153676	0.90489619547459
11.046148047163	0.90491873849524
11.017730907755	0.90492923550753
10.989459604106	0.90492768470117
10.961333016453	0.90491408589654
10.933350036470	0.90488844054861
10.905509567115	0.90485075175005
10.877810522496	0.90480102423403
10.850251827723	0.90473926437629
10.822832418773	0.90466548019675
10.795551242348	0.90457968136047
10.768407255747	0.90448187917814
10.741399426729	0.90437208660596
10.714526733381	0.90425031824493
10.687788163993	0.90411659033967
10.661182716927	0.90397092077657
10.634709400497	0.90381332908146
10.608367232838	0.90364383641667
10.582155241793	0.90346246557759
10.556072464789	0.90326924098862
10.530117948718	0.90306418869861
10.504290749825	0.90284733637570
10.478589933590	0.90261871330169
10.453014574616	0.90237835036582
10.427563756522	0.90212628005797
10.402236571825	0.90186253646145
10.377032121841	0.90158715524513
10.351949516575	0.90130017365513
10.326987874612	0.90100163050592
10.302146323024	0.90069156617102
10.277423997257	0.90037002257304
10.252820041040	0.90003704317337
10.228333606278	0.89969267296124
10.203963852961	0.89933695844239
10.179709949066	0.89896994762721
10.155571070461	0.89859169001841
10.131546400811	0.89820223659824
10.107635131490	0.89780163981522
10.083836461487	0.89738995357047
10.060149597315	0.89696723320351
10.036573752929	0.89653353547771
10.013108149633	0.89608891856529
9.9897520159947	0.89563344203186
9.9665045877660	0.89516716682060
9.9433651077944	0.89469015523604
9.9203328259431	0.89420247092739
9.8974069990096	0.89370417887156
9.8745868906456	0.89319534535582
9.8518717712783	0.89267603795997
9.8292609180328	0.89214632553834
9.8067536146549	0.89160627820131
9.7843491514360	0.89105596729658
9.7620468251384	0.89049546539008
9.7398459389214	0.88992484624657
9.7177458022690	0.88934418480999
9.6957457309185	0.88875355718348
9.6738450467893	0.88815304060911
9.6520430779137	0.88754271344740
9.6303391583681	0.88692265515655
9.6087326282051	0.88629294627145
9.5872228333866	0.88565366838239
9.5658091257179	0.88500490411370
9.5444908627826	0.88434673710198
9.5232674078780	0.88367925197435
9.5021381299525	0.88300253432630
9.4811024035421	0.88231667069958
9.4601596087094	0.88162174855972
9.4393091309824	0.88091785627360
9.4185503612944	0.88020508308669
9.3978826959248	0.87948351910031
9.3773055364404	0.87875325524872
9.3568182896380	0.87801438327607
9.3364203674868	0.87726699571331
9.3161111870727	0.87651118585500
9.2958901705426	0.87574704773604
9.2757567450495	0.87497467610834
9.2557103426984	0.87419416641746
9.2357504004929	0.87340561477919
9.2158763602828	0.87260911795612
9.1960876687117	0.87180477333417
9.1763837771656	0.87099267889914
9.1567641417227	0.87017293321326
9.1372282231027	0.86934563539174
9.1177754866180	0.86851088507935
9.0984054021244	0.86766878242706
9.0791174439733	0.86681942806868
9.0599110909640	0.86596292309759
9.0407858262967	0.86509936904355
9.0217411375263	0.86422886784952
9.0027765165165	0.86335152184865
8.9838914593947	0.86246743374125
8.9650854665072	0.86157670657202
8.9463580423754	0.86067944370723
8.9277086956522	0.85977574881213
8.9091369390788	0.85886572582843
8.8906422894425	0.85794947895194
8.8722242675348	0.85702711261036
8.8538823981099	0.85609873144122
8.8356162098438	0.85516444026995
8.8174252352941	0.85422434408817
8.7993090108600	0.85327854803212
8.7812670767428	0.85232715736127
8.7632989769073	0.85137027743715
8.7454042590432	0.85040801370234
8.7275824745269	0.84944047165970
8.7098331783847	0.84846775685178
8.6921559292549	0.84748997484046
8.6745502893519	0.84650723118678
8.6570158244297	0.84551963143107
8.6395521037464	0.84452728107323
8.6221587000288	0.84353028555332
8.6048351894374	0.84252875023230
8.5875811515325	0.84152278037314
8.5703961692396	0.84051248112205
8.5532798288160	0.83949795749012
8.5362317198178	0.83847931433503
8.5192514350668	0.83745665634322
8.5023385706183	0.83643008801220
8.4854927257288	0.83539971363315
8.4687135028249	0.83436563727385
8.4520005074711	0.83332796276186
8.4353533483399	0.83228679366794
8.4187716371806	0.83124223328982
8.4022549887892	0.83019438463621
8.3858030209790	0.82914335041115
8.3694153545505	0.82808923299858
8.3530916132627	0.82703213444725
8.3368314238042	0.82597215645597
8.3206344157646	0.82490940035902
8.3045002216066	0.82384396711201
8.2884284766381	0.82277595727796
8.2724188189845	0.82170547101366
8.2564708895621	0.82063260805641
8.2405843320506	0.81955746771099
8.2247587928669	0.81848014883697
8.2089939211391	0.81740074983632
8.1932893686800	0.81631936864128
8.1776447899618	0.81523610270262
8.1620598420909	0.81415104897811
8.1465341847826	0.81306430392138
8.1310674803363	0.81197596347098
8.1156593936113	0.81088612303983
8.1003095920022	0.80979487750496
8.0850177454153	0.80870232119748
8.0697835262450	0.80760854789293
8.0546066093498	0.80651365080191
8.0394866720300	0.80541772256094
8.0244233940043	0.80432085522373
8.0094164573871	0.80322314025261
7.9944655466667	0.80212466851041
7.9795703486825	0.80102553025246
7.9647305526036	0.79992581511900
7.9499458499072	0.79882561212784
7.9352159343568	0.79772500966727
7.9205405019815	0.79662409548934
7.9059192510549	0.79552295670329
7.8913518820742	0.79442167976937
7.8768380977404	0.79332035049289
7.8623776029373	0.79221905401854
7.8479701047120	0.79111787482499
7.8336153122550	0.79001689671973
7.8193129368805	0.78891620283421
7.8050626920073	0.78781587561924
7.7908642931393	0.78671599684059
7.7767174578470	0.78561664757493
7.7626219057483	0.78451790820596
7.7485773584906	0.78341985842081
7.7345835397317	0.78232257720667
7.7206401751223	0.78122614284771
7.7067469922879	0.78013063292216
7.6929037208109	0.77903612429970
7.6791100922131	0.77794269313904
7.6653658399386	0.77685041488573
7.6516706993364	0.77575936427024
7.6380244076433	0.77466961530617
7.6244267039674	0.77358124128880
7.6108773292714	0.77249431479371
7.5973760263558	0.77140890767579
7.5839225398432	0.77032509106825
7.5705166161616	0.76924293538202
7.5571580035291	0.76816251030524
7.5438464519376	0.76708388480298
7.5305817131374	0.76600712711715
7.5173635406219	0.76493230476660
7.5041916896120	0.76385948454739
7.4910659170415	0.76278873253328
7.4779859815415	0.76172011407638
7.4649516434263	0.76065369380793
7.4519626646781	0.75958953563932
7.4390188089330	0.75852770276323
7.4261198414664	0.75746825765496
7.4132655291790	0.75641126207392
7.4004556405826	0.75535677706521
7.3876899457861	0.75430486296150
7.3749682164822	0.75325557938487
7.3622902259332	0.75220898524894
7.3496557489581	0.75116513876111
7.3370645619187	0.75012409742488
7.3245164427071	0.74908591804234
7.3120111707317	0.74805065671686
7.2995485269053	0.74701836885575
7.2871282936315	0.74598910917322
7.2747502547925	0.74496293169332
7.2624141957364	0.74393988975310
7.2501199032648	0.74292003600578
7.2378671656205	0.74190342242415
7.2256557724753	0.74089010030396
7.2134855149182	0.73988012026751
7.2013561854432	0.73887353226727
7.1892675779376	0.73787038558963
7.1772194876706	0.73687072885876
7.1652117112811	0.73587461004050
7.1532440467669	0.73488207644642
7.1413162934731	0.73389317473790
7.1294282520809	0.73290795093029
7.1175797245964	0.73192645039722
7.1057705143399	0.73094871787489
7.0940004259347	0.72997479746652
7.0822692652965	0.72900473264677
7.0705768396226	0.72803856626635
7.0589229573817	0.72707634055659
7.0473074283028	0.72611809713411
7.0357300633654	0.72516387700555
7.0241906747891	0.72421372057237
7.0126890760234	0.72326766763567
7.0012250817375	0.72232575740105
6.9897985078107	0.72138802848360
6.9784091713222	0.72045451891283
6.9670568905415	0.71952526613772
6.9557414849188	0.71860030703176
6.9444627750753	0.71767967789805
6.9332205827937	0.71676341447447
6.9220147310090	0.71585155193878
6.9108450437990	0.71494412491389
6.8997113463751	0.71404116747303
6.8886134650735	0.71314271314504
6.8775512273457	0.71224879491962
6.8665244617499	0.71135944525264
6.8555329979419	0.71047469607146
6.8445766666667	0.70959457878028
6.8336552997493	0.70871912426545
6.8227687300865	0.70784836290088
6.8119167916383	0.70698232455341
6.8010993194192	0.70612103858818
6.7903161494904	0.70526453387403
6.7795671189507	0.70441283878894
6.7688520659291	0.70356598122537
6.7581708295762	0.70272398859576
6.7475232500563	0.70188688783786
6.7369091685393	0.70105470542019
6.7263284271932	0.70022746734745
6.7157808691756	0.69940519916591
6.7052663386267	0.69858792596882
6.6947846806610	0.69777567240182
6.6843357413601	0.69696846266831
6.6739193677649	0.69616632053485
6.6635354078684	0.69536926933651
6.6531837106081	0.69457733198223
6.6428641258586	0.69379053096021
6.6325765044248	0.69300888834317
6.6223206980340	0.69223242579371
6.6120965593295	0.69146116456960
6.6019039418630	0.69069512552905
6.5917427000879	0.68993432913600
6.5816126893524	0.68917879546533
6.5715137658922	0.68842854420810
6.5614457868243	0.68768359467672
6.5514086101399	0.68694396581017
6.5414020946978	0.68620967617913
6.5314261002179	0.68548074399107
6.5214804872743	0.68475718709542
6.5115651172893	0.68403902298858
6.5016798525266	0.68332626881902
6.4918245560849	0.68261894139222
6.4819990918919	0.68191705717575
6.4722033246978	0.68122063230415
6.4624371200690	0.68052968258392
6.4527003443823	0.67984422349834
6.4429928648184	0.67916427021241
6.4333145493562	0.67848983757763
6.4236652667667	0.67782094013681
6.4140448866068	0.67715759212884
6.4044532792138	0.67649980749339
6.3948903156997	0.67584759987564
6.3853558679446	0.67520098263091
6.3758498085921	0.67455996882927
6.3663720110427	0.67392457126016
6.3569223494487	0.67329480243690
6.3475006987084	0.67267067460120
6.3381069344609	0.67205219972766
6.3287409330800	0.67143938952816
6.3194025716695	0.67083225545627
6.3100917280572	0.67023080871161
6.3008082807902	0.66963506024413
6.2915521091291	0.66904502075843
6.2823230930427	0.66846070071794
6.2731211132036	0.66788211034912
6.2639460509820	0.66730925964566
6.2547977884415	0.66674215837251
6.2456762083333	0.66618081607000
6.2365811940919	0.66562524205783
6.2275126298297	0.66507544543908
6.2184704003319	0.66453143510412
6.2094543910522	0.66399321973453
6.2004644881075	0.66346080780693
6.1915005782734	0.66293420759681
6.1825625489792	0.66241342718227
6.1736502883031	0.66189847444779
6.1647636849681	0.66138935708785
6.1559026283368	0.66088608261061
6.1470670084068	0.66038865834148
6.1382567158067	0.65989709142668
6.1294716417910	0.65941138883673
6.1207116782360	0.65893155736992
6.1119767176351	0.65845760365572
6.1032666530945	0.65798953415817
6.0945813783289	0.65752735517916
6.0859207876573	0.65707107286178
6.0772847759984	0.65662069319349
6.0686732388664	0.65617622200936
6.0600860723671	0.65573766499520
6.0515231731934	0.65530502769066
6.0429844386212	0.65487831549230
6.0344697665056	0.65445753365660
6.0259790552764	0.65404268730293
6.0175122039342	0.65363378141649
6.0090691120465	0.65323082085115
6.0006496797438	0.65283381033235
5.9922538077154	0.65244275445982
5.9838813972056	0.65205765771039
5.9755323500100	0.65167852444065
5.9672065684713	0.65130535888963
5.9589039554760	0.65093816518141
5.9506244144502	0.65057694732767
5.9423678493558	0.65022170923026
5.9341341646873	0.64987245468362
5.9259232654675	0.64952918737726
5.9177350572444	0.64919191089816
5.9095694460871	0.64886062873306
5.9014263385827	0.64853534427083
5.8933056418321	0.64821606080468
5.8852072634472	0.64790278153441
5.8771311115468	0.64759550956854
5.8690770947533	0.64729424792650
5.8610451221896	0.64699899954065
5.8530351034752	0.64670976725835
5.8450469487229	0.64642655384396
5.8370805685358	0.64614936198079
5.8291358740035	0.64587819427298
5.8212127766990	0.64561305324742
5.8133111886756	0.64535394135551
5.8054310224632	0.64510086097500
5.7975721910656	0.64485381441167
5.7897346079567	0.64461280390106
5.7819181870781	0.64437783161010
5.7741228428351	0.64414889963872
5.7663484900942	0.64392601002144
5.7585950441798	0.64370916472883
5.7508624208709	0.64349836566904
5.7431505363985	0.64329361468921
5.7354593074421	0.64309491357688
5.7277886511272	0.64290226406133
5.7201384850219	0.64271566781485
5.7125087271341	0.64253512645409
5.7048992959087	0.64236064154119
5.6973101102242	0.64219221458503
5.6897410893908	0.64202984704230
5.6821921531463	0.64187354031867
5.6746632216544	0.64172329576978
5.6671542155009	0.64157911470230
5.6596650556919	0.64144099837483
5.6521956636501	0.64130894799892
5.6447459612126	0.64118296473988
5.6373158706281	0.64106304971765
5.6299053145540	0.64094920400760
5.6225142160540	0.64084142864128
5.6151424985952	0.64073972460717
5.6077900860456	0.64064409285130
5.6004569026714	0.64055453427794
5.5931428731343	0.64047104975015
5.5858479224893	0.64039364009037
5.5785719761816	0.64032230608087
5.5713149600446	0.64025704846430
5.5640768002970	0.64019786794405
5.5568574235403	0.64014476518463
5.5496567567568	0.64009774081210
5.5424747273063	0.64005679541425
5.5353112629247	0.64002192954097
5.5281662917204	0.63999314370438
5.5210397421731	0.63997043837908
5.5139315431304	0.63995381400223
5.5068416238060	0.63994327097369
5.4997699137773	0.63993880965604
5.4927163429828	0.63994043037461
5.4856808417200	0.63994813341744
5.4786633406433	0.63996191903522
5.4716637707611	0.63998178744117
5.4646820634342	0.64000773881088
5.4577181503732	0.64003977328215
5.4507719636364	0.64007789095469
5.4438434356274	0.64012209188991
5.4369324990932	0.64017237611056
5.4300390871219	0.64022874360037
5.4231631331404	0.64029119430367
5.4163045709124	0.64035972812493
5.4094633345363	0.64043434492828
5.4026393584430	0.64051504453697
5.3958325773938	0.64060182673281
5.3890429264785	0.64069469125557
5.3822703411131	0.64079363780233
5.3755147570378	0.64089866602674
5.3687761103152	0.64100977553835
5.3620543373278	0.64112696590178
5.3553493747767	0.64125023663593
5.3486611596789	0.64137958721310
5.3419896293656	0.64151501705811
5.3353347214807	0.64165652554733
5.3286963739780	0.64180411200769
5.3220745251198	0.64195777571566
5.3154691134752	0.64211751589621
5.3088800779175	0.64228333172161
5.3023073576229	0.64245522231037
5.2957508920685	0.64263318672596
5.2892106210303	0.64281722397563
5.2826864845815	0.64300733300906
5.2761784230905	0.64320351271711
5.2696863772192	0.64340576193038
5.2632102879213	0.64361407941783
5.2567500964405	0.64382846388531
5.2503057443082	0.64404891397408
5.2438771733427	0.64427542825923
5.2374643256464	0.64450800524816
5.2310671436050	0.64474664337886
5.2246855698850	0.64499134101831
5.2183195474326	0.64524209646076
5.2119690194715	0.64549890792591
5.2056339295016	0.64576177355717
5.1993142212973	0.64603069141979
5.1930098389052	0.64630565949897
5.1867207266436	0.64658667569791
5.1804468290997	0.64687373783588
5.1741880911288	0.64716684364614
5.1679444578521	0.64746599077390
5.1617158746556	0.64777117677423
5.1555022871883	0.64808239910986
5.1493036413604	0.64839965514901
5.1431198833419	0.64872294216317
5.1369509595613	0.64905225732476
5.1307968167037	0.64938759770483
5.1246574017094	0.64972896027068
5.1185326617722	0.65007634188343
5.1124225443383	0.65042973929558
5.1063269971044	0.65078914914846
5.1002459680163	0.65115456796972
5.0941794052676	0.65152599217068
5.0881272572980	0.65190341804375
5.0820894727920	0.65228684175966
5.0760660006773	0.65267625936481
5.0700567901235	0.65307166677843
5.0640617905405	0.65347305978978
5.0580809515775	0.65388043405529
5.0521142231210	0.65429378509561
5.0461615552937	0.65471310829270
5.0402228984533	0.65513839888681
5.0342982031906	0.65556965197340
5.0283874203287	0.65600686250008
5.0224905009214	0.65645002526348
5.0166073962517	0.65689913490602
5.0107380578305	0.65735418591275
5.0048824373957	0.65781517260800
4.9990404869101	0.65828208915213
4.9932121585610	0.65875492953813
4.9873974047579	0.65923368758823
4.9815961781323	0.65971835695043
4.9758084315353	0.66020893109503
4.9700341180371	0.66070540331106
4.9642731909256	0.66120776670272
4.9585256037049	0.66171601418576
4.9527913100942	0.66223013848376
4.9470702640264	0.66275013212447
4.9413624196473	0.66327598743601
4.9356677313138	0.66380769654309
4.9299861535932	0.66434525136316
4.9243176412615	0.66488864360248
4.9186621493027	0.66543786475227
4.9130196329072	0.66599290608465
4.9073900474709	0.66655375864868
4.9017733485939	0.66712041326626
4.8961694920790	0.66769286052804
4.8905784339315	0.66827109078930
4.8850001303569	0.66885509416574
4.8794345377604	0.66944486052923
4.8738816127459	0.67004037950361
4.8683413121143	0.67064164046030
4.8628135928629	0.67124863251403
4.8572984121841	0.67186134451838
4.8517957274640	0.67247976506141
4.8463054962819	0.67310388246117
4.8408276764088	0.67373368476117
4.8353622258065	0.67436915972589
