#Parameters = {thARC=1; nARC=3; thsub=1; p=1; nSub=4}
#"Wavelength / um"	"T (702) [Real Part]"
#---------------------------------------
14.989622900000	0.82606890485528
14.937342202292	0.82676819784836
14.885424925521	0.82745916123308
14.833867293419	0.82814173103087
14.782665581854	0.82881584366223
14.731816117936	0.82948143596596
14.681315279138	0.83013844521846
14.631159492435	0.83078680915314
14.581345233463	0.83142646597979
14.531869025691	0.83205735440412
14.482727439614	0.83267941364721
14.433917091960	0.83329258346514
14.385434644914	0.83389680416846
14.337276805356	0.83449201664185
14.289440324118	0.83507816236368
14.241921995249	0.83565518342555
14.194718655303	0.83622302255192
14.147827182633	0.83678162311957
14.101244496707	0.83733092917718
14.054967557431	0.83787088546474
14.008993364486	0.83840143743296
13.963318956684	0.83892253126264
13.917941411328	0.83943411388392
13.872857843591	0.83993613299547
13.828065405904	0.84042853708359
13.783561287356	0.84091127544121
13.739342713107	0.84138429818675
13.695406943810	0.84184755628293
13.651751275046	0.84230100155533
13.608373036768	0.84274458671094
13.565269592760	0.84317826535644
13.522438340099	0.84360199201644
13.479876708633	0.84401572215142
13.437582160466	0.84441941217558
13.395552189455	0.84481301947448
13.353784320713	0.84519650242246
13.312276110124	0.84556982039985
13.271025143869	0.84593293380998
13.230029037952	0.84628580409596
13.189285437747	0.84662839375719
13.148792017544	0.84696066636565
13.108546480105	0.84728258658193
13.068546556234	0.84759412017099
13.028790004346	0.84789523401760
12.989274610052	0.84818589614160
12.949998185745	0.84846607571275
12.910958570198	0.84873574306534
12.872153628167	0.84899486971249
12.833581250000	0.84924342836006
12.795239351259	0.84948139292038
12.757125872340	0.84970873852544
12.719238778108	0.84992544153991
12.681576057530	0.85013147957373
12.644135723323	0.85032683149433
12.606915811606	0.85051147743850
12.569914381551	0.85068539882391
12.533129515050	0.85084857836017
12.496559316382	0.85100100005963
12.460201911887	0.85114264924760
12.424055449648	0.85127351257236
12.388118099174	0.85139357801464
12.352388051092	0.85150283489670
12.316863516845	0.85160127389101
12.281542728390	0.85168888702853
12.246423937908	0.85176566770647
12.211505417515	0.85183161069573
12.176785458976	0.85188671214778
12.142262373431	0.85193096960117
12.107934491115	0.85196438198760
12.073800161095	0.85198694963744
12.039857751004	0.85199867428490
12.006105646776	0.85199955907269
11.972542252396	0.85198960855620
11.939165989646	0.85196882870722
11.905975297855	0.85193722691722
11.872968633663	0.85189481200014
11.840144470774	0.85184159419467
11.807501299724	0.85177758516607
11.775037627651	0.85170279800759
11.742751978065	0.85161724724126
11.710642890625	0.85152094881834
11.678708920919	0.85141392011920
11.646948640249	0.85129617995277
11.615360635413	0.85116774855546
11.583943508501	0.85102864758966
11.552695876686	0.85087890014170
11.521616372022	0.85071853071935
11.490703641242	0.85054756524889
11.459956345566	0.85036603107160
11.429373160503	0.85017395693990
11.398952775665	0.84997137301290
11.368693894577	0.84975831085156
11.338595234493	0.84953480341335
11.308655526217	0.84930088504642
11.278873513920	0.84905659148340
11.249247954972	0.84880195983463
11.219777619760	0.84853702858098
11.190461291527	0.84826183756627
11.161297766195	0.84797642798915
11.132285852209	0.84768084239461
11.103424370370	0.84737512466506
11.074712153676	0.84705932001088
11.046148047163	0.84673347496067
11.017730907755	0.84639763735103
10.989459604106	0.84605185631587
10.961333016453	0.84569618227540
10.933350036470	0.84533066692467
10.905509567115	0.84495536322172
10.877810522496	0.84457032537535
10.850251827723	0.84417560883251
10.822832418773	0.84377127026529
10.795551242348	0.84335736755758
10.768407255747	0.84293395979136
10.741399426729	0.84250110723261
10.714526733381	0.84205887131690
10.687788163993	0.84160731463467
10.661182716927	0.84114650091612
10.634709400497	0.84067649501585
10.608367232838	0.84019736289713
10.582155241793	0.83970917161590
10.556072464789	0.83921198930447
10.530117948718	0.83870588515497
10.504290749825	0.83819092940245
10.478589933590	0.83766719330779
10.453014574616	0.83713474914029
10.427563756522	0.83659367016008
10.402236571825	0.83604403060025
10.377032121841	0.83548590564876
10.351949516575	0.83491937143010
10.326987874612	0.83434450498683
10.302146323024	0.83376138426085
10.277423997257	0.83317008807448
10.252820041040	0.83257069611136
10.228333606278	0.83196328889729
10.203963852961	0.83134794778070
10.179709949066	0.83072475491320
10.155571070461	0.83009379322979
10.131546400811	0.82945514642913
10.107635131490	0.82880889895350
10.083836461487	0.82815513596880
10.060149597315	0.82749394334439
10.036573752929	0.82682540763282
10.013108149633	0.82614961604954
9.9897520159947	0.82546665645246
9.9665045877660	0.82477661732154
9.9433651077944	0.82407958773824
9.9203328259431	0.82337565736500
9.8974069990096	0.82266491642466
9.8745868906456	0.82194745567982
9.8518717712783	0.82122336641226
9.8292609180328	0.82049274040233
9.8067536146549	0.81975566990828
9.7843491514360	0.81901224764570
9.7620468251384	0.81826256676693
9.7398459389214	0.81750672084052
9.7177458022690	0.81674480383071
9.6957457309185	0.81597691007700
9.6738450467893	0.81520313427370
9.6520430779137	0.81442357144967
9.6303391583681	0.81363831694799
9.6087326282051	0.81284746640583
9.5872228333866	0.81205111573433
9.5658091257179	0.81124936109866
9.5444908627826	0.81044229889808
9.5232674078780	0.80963002574621
9.5021381299525	0.80881263845137
9.4811024035421	0.80799023399703
9.4601596087094	0.80716290952249
9.4393091309824	0.80633076230355
9.4185503612944	0.80549388973348
9.3978826959248	0.80465238930402
9.3773055364404	0.80380635858666
9.3568182896380	0.80295589521395
9.3364203674868	0.80210109686112
9.3161111870727	0.80124206122774
9.2958901705426	0.80037888601973
9.2757567450495	0.79951166893139
9.2557103426984	0.79864050762774
9.2357504004929	0.79776549972699
9.2158763602828	0.79688674278329
9.1960876687117	0.79600433426958
9.1763837771656	0.79511837156080
9.1567641417227	0.79422895191715
9.1372282231027	0.79333617246770
9.1177754866180	0.79244013019420
9.0984054021244	0.79154092191506
9.0791174439733	0.79063864426962
9.0599110909640	0.78973339370266
9.0407858262967	0.78882526644909
9.0217411375263	0.78791435851898
9.0027765165165	0.78700076568271
8.9838914593947	0.78608458345651
8.9650854665072	0.78516590708810
8.9463580423754	0.78424483154273
8.9277086956522	0.78332145148935
8.9091369390788	0.78239586128713
8.8906422894425	0.78146815497218
8.8722242675348	0.78053842624454
8.8538823981099	0.77960676845548
8.8356162098438	0.77867327459497
8.8174252352941	0.77773803727953
8.7993090108600	0.77680114874021
8.7812670767428	0.77586270081099
8.7632989769073	0.77492278491731
8.7454042590432	0.77398149206492
8.7275824745269	0.77303891282905
8.7098331783847	0.77209513734374
8.6921559292549	0.77115025529153
8.6745502893519	0.77020435589335
8.6570158244297	0.76925752789877
8.6395521037464	0.76830985957637
8.6221587000288	0.76736143870454
8.6048351894374	0.76641235256240
8.5875811515325	0.76546268792113
8.5703961692396	0.76451253103541
8.5532798288160	0.76356196763524
8.5362317198178	0.76261108291798
8.5192514350668	0.76165996154064
8.5023385706183	0.76070868761246
8.4854927257288	0.75975734468769
8.4687135028249	0.75880601575873
8.4520005074711	0.75785478324938
8.4353533483399	0.75690372900851
8.4187716371806	0.75595293430383
8.4022549887892	0.75500247981599
8.3858030209790	0.75405244563292
8.3694153545505	0.75310291124442
8.3530916132627	0.75215395553694
8.3368314238042	0.75120565678867
8.3206344157646	0.75025809266484
8.3045002216066	0.74931134021321
8.2884284766381	0.74836547585992
8.2724188189845	0.74742057540541
8.2564708895621	0.74647671402067
8.2405843320506	0.74553396624372
8.2247587928669	0.74459240597625
8.2089939211391	0.74365210648054
8.1932893686800	0.74271314037656
8.1776447899618	0.74177557963930
8.1620598420909	0.74083949559630
8.1465341847826	0.73990495892542
8.1310674803363	0.73897203965278
8.1156593936113	0.73804080715091
8.1003095920022	0.73711133013710
8.0850177454153	0.73618367667199
8.0697835262450	0.73525791415827
8.0546066093498	0.73433410933962
8.0394866720300	0.73341232829988
8.0244233940043	0.73249263646228
8.0094164573871	0.73157509858900
7.9944655466667	0.73065977878080
7.9795703486825	0.72974674047682
7.9647305526036	0.72883604645467
7.9499458499072	0.72792775883054
7.9352159343568	0.72702193905958
7.9205405019815	0.72611864793637
7.9059192510549	0.72521794559560
7.8913518820742	0.72431989151287
7.8768380977404	0.72342454450569
7.8623776029373	0.72253196273453
7.8479701047120	0.72164220370414
7.8336153122550	0.72075532426490
7.8193129368805	0.71987138061439
7.8050626920073	0.71899042829905
7.7908642931393	0.71811252221598
7.7767174578470	0.71723771661487
7.7626219057483	0.71636606510006
7.7485773584906	0.71549762063273
7.7345835397317	0.71463243553316
7.7206401751223	0.71377056148319
7.7067469922879	0.71291204952873
7.6929037208109	0.71205695008235
7.6791100922131	0.71120531292610
7.6653658399386	0.71035718721429
7.6516706993364	0.70951262147646
7.6380244076433	0.70867166362040
7.6244267039674	0.70783436093534
7.6108773292714	0.70700076009509
7.5973760263558	0.70617090716143
7.5839225398432	0.70534484758747
7.5705166161616	0.70452262622114
7.5571580035291	0.70370428730876
7.5438464519376	0.70288987449865
7.5305817131374	0.70207943084486
7.5173635406219	0.70127299881098
7.5041916896120	0.70047062027393
7.4910659170415	0.69967233652791
7.4779859815415	0.69887818828838
7.4649516434263	0.69808821569611
7.4519626646781	0.69730245832123
7.4390188089330	0.69652095516743
7.4261198414664	0.69574374467614
7.4132655291790	0.69497086473079
7.4004556405826	0.69420235266111
7.3876899457861	0.69343824524748
7.3749682164822	0.69267857872531
7.3622902259332	0.69192338878948
7.3496557489581	0.69117271059881
7.3370645619187	0.69042657878056
7.3245164427071	0.68968502743495
7.3120111707317	0.68894809013976
7.2995485269053	0.68821579995489
7.2871282936315	0.68748818942705
7.2747502547925	0.68676529059431
7.2624141957364	0.68604713499088
7.2501199032648	0.68533375365173
7.2378671656205	0.68462517711733
7.2256557724753	0.68392143543836
7.2134855149182	0.68322255818050
7.2013561854432	0.68252857442915
7.1892675779376	0.68183951279419
7.1772194876706	0.68115540141479
7.1652117112811	0.68047626796419
7.1532440467669	0.67980213965447
7.1413162934731	0.67913304324137
7.1294282520809	0.67846900502909
7.1175797245964	0.67781005087508
7.1057705143399	0.67715620619484
7.0940004259347	0.67650749596673
7.0822692652965	0.67586394473673
7.0705768396226	0.67522557662331
7.0589229573817	0.67459241532211
7.0473074283028	0.67396448411079
7.0357300633654	0.67334180585377
7.0241906747891	0.67272440300698
7.0126890760234	0.67211229762262
7.0012250817375	0.67150551135388
6.9897985078107	0.67090406545965
6.9784091713222	0.67030798080923
6.9670568905415	0.66971727788700
6.9557414849188	0.66913197679712
6.9444627750753	0.66855209726812
6.9332205827937	0.66797765865757
6.9220147310090	0.66740867995666
6.9108450437990	0.66684517979482
6.8997113463751	0.66628717644419
6.8886134650735	0.66573468782427
6.8775512273457	0.66518773150633
6.8665244617499	0.66464632471795
6.8555329979419	0.66411048434745
6.8445766666667	0.66358022694830
6.8336552997493	0.66305556874357
6.8227687300865	0.66253652563024
6.8119167916383	0.66202311318355
6.8010993194192	0.66151534666135
6.7903161494904	0.66101324100831
6.7795671189507	0.66051681086017
6.7688520659291	0.66002607054800
6.7581708295762	0.65954103410229
6.7475232500563	0.65906171525715
6.7369091685393	0.65858812745438
6.7263284271932	0.65812028384753
6.7157808691756	0.65765819730596
6.7052663386267	0.65720188041878
6.6947846806610	0.65675134549882
6.6843357413601	0.65630660458658
6.6739193677649	0.65586766945403
6.6635354078684	0.65543455160850
6.6531837106081	0.65500726229645
6.6428641258586	0.65458581250721
6.6325765044248	0.65417021297672
6.6223206980340	0.65376047419118
6.6120965593295	0.65335660639067
6.6019039418630	0.65295861957272
6.5917427000879	0.65256652349591
6.5816126893524	0.65218032768329
6.5715137658922	0.65180004142590
6.5614457868243	0.65142567378611
6.5514086101399	0.65105723360105
6.5414020946978	0.65069472948588
6.5314261002179	0.65033816983711
6.5214804872743	0.64998756283578
6.5115651172893	0.64964291645066
6.5016798525266	0.64930423844141
6.4918245560849	0.64897153636163
6.4819990918919	0.64864481756195
6.4722033246978	0.64832408919299
6.4624371200690	0.64800935820830
6.4527003443823	0.64770063136730
6.4429928648184	0.64739791523812
6.4333145493562	0.64710121620039
6.4236652667667	0.64681054044802
6.4140448866068	0.64652589399191
6.4044532792138	0.64624728266257
6.3948903156997	0.64597471211279
6.3853558679446	0.64570818782019
6.3758498085921	0.64544771508970
6.3663720110427	0.64519329905607
6.3569223494487	0.64494494468626
6.3475006987084	0.64470265678183
6.3381069344609	0.64446643998121
6.3287409330800	0.64423629876205
6.3194025716695	0.64401223744336
6.3100917280572	0.64379426018771
6.3008082807902	0.64358237100337
6.2915521091291	0.64337657374634
6.2823230930427	0.64317687212239
6.2731211132036	0.64298326968902
6.2639460509820	0.64279576985739
6.2547977884415	0.64261437589416
6.2456762083333	0.64243909092333
6.2365811940919	0.64226991792801
6.2275126298297	0.64210685975210
6.2184704003319	0.64194991910201
6.2094543910522	0.64179909854820
6.2004644881075	0.64165440052680
6.1915005782734	0.64151582734111
6.1825625489792	0.64138338116304
6.1736502883031	0.64125706403451
6.1647636849681	0.64113687786886
6.1559026283368	0.64102282445209
6.1470670084068	0.64091490544416
6.1382567158067	0.64081312238016
6.1294716417910	0.64071747667150
6.1207116782360	0.64062796960696
6.1119767176351	0.64054460235378
6.1032666530945	0.64046737595863
6.0945813783289	0.64039629134857
6.0859207876573	0.64033134933191
6.0772847759984	0.64027255059912
6.0686732388664	0.64021989572352
6.0600860723671	0.64017338516211
6.0515231731934	0.64013301925620
6.0429844386212	0.64009879823205
6.0344697665056	0.64007072220145
6.0259790552764	0.64004879116227
6.0175122039342	0.64003300499891
6.0090691120465	0.64002336348274
6.0006496797438	0.64001986627246
5.9922538077154	0.64002251291441
5.9838813972056	0.64003130284288
5.9755323500100	0.64004623538026
5.9672065684713	0.64006730973727
5.9589039554760	0.64009452501301
5.9506244144502	0.64012788019504
5.9423678493558	0.64016737415942
5.9341341646873	0.64021300567058
5.9259232654675	0.64026477338130
5.9177350572444	0.64032267583252
5.9095694460871	0.64038671145313
5.9014263385827	0.64045687855970
5.8933056418321	0.64053317535623
5.8852072634472	0.64061559993369
5.8771311115468	0.64070415026968
5.8690770947533	0.64079882422795
5.8610451221896	0.64089961955781
5.8530351034752	0.64100653389363
5.8450469487229	0.64111956475419
5.8370805685358	0.64123870954198
5.8291358740035	0.64136396554247
5.8212127766990	0.64149532992331
5.8133111886756	0.64163279973353
5.8054310224632	0.64177637190261
5.7975721910656	0.64192604323952
5.7897346079567	0.64208181043174
5.7819181870781	0.64224367004422
5.7741228428351	0.64241161851823
5.7663484900942	0.64258565217023
5.7585950441798	0.64276576719064
5.7508624208709	0.64295195964258
5.7431505363985	0.64314422546053
5.7354593074421	0.64334256044898
5.7277886511272	0.64354696028098
5.7201384850219	0.64375742049667
5.7125087271341	0.64397393650173
5.7048992959087	0.64419650356581
5.6973101102242	0.64442511682086
5.6897410893908	0.64465977125947
5.6821921531463	0.64490046173308
5.6746632216544	0.64514718295019
5.6671542155009	0.64539992947452
5.6596650556919	0.64565869572308
5.6521956636501	0.64592347596421
5.6447459612126	0.64619426431556
5.6373158706281	0.64647105474202
5.6299053145540	0.64675384105361
5.6225142160540	0.64704261690326
5.6151424985952	0.64733737578462
5.6077900860456	0.64763811102977
5.6004569026714	0.64794481580687
5.5931428731343	0.64825748311774
5.5858479224893	0.64857610579548
5.5785719761816	0.64890067650193
5.5713149600446	0.64923118772511
5.5640768002970	0.64956763177666
5.5568574235403	0.64991000078911
5.5496567567568	0.65025828671328
5.5424747273063	0.65061248131539
5.5353112629247	0.65097257617435
5.5281662917204	0.65133856267884
5.5210397421731	0.65171043202440
5.5139315431304	0.65208817521047
5.5068416238060	0.65247178303733
5.4997699137773	0.65286124610310
5.4927163429828	0.65325655480051
5.4856808417200	0.65365769931382
5.4786633406433	0.65406466961552
5.4716637707611	0.65447745546309
5.4646820634342	0.65489604639564
5.4577181503732	0.65532043173057
5.4507719636364	0.65575060056008
5.4438434356274	0.65618654174772
5.4369324990932	0.65662824392486
5.4300390871219	0.65707569548711
5.4231631331404	0.65752888459067
5.4163045709124	0.65798779914866
5.4094633345363	0.65845242682739
5.4026393584430	0.65892275504258
5.3958325773938	0.65939877095556
5.3890429264785	0.65988046146936
5.3822703411131	0.66036781322480
5.3755147570378	0.66086081259654
5.3687761103152	0.66135944568907
5.3620543373278	0.66186369833263
5.3553493747767	0.66237355607910
5.3486611596789	0.66288900419790
5.3419896293656	0.66341002767174
5.3353347214807	0.66393661119243
5.3286963739780	0.66446873915658
5.3220745251198	0.66500639566126
5.3154691134752	0.66554956449967
5.3088800779175	0.66609822915672
5.3023073576229	0.66665237280458
5.2957508920685	0.66721197829820
5.2892106210303	0.66777702817079
5.2826864845815	0.66834750462923
5.2761784230905	0.66892338954953
5.2696863772192	0.66950466447210
5.2632102879213	0.67009131059715
5.2567500964405	0.67068330877996
5.2503057443082	0.67128063952612
5.2438771733427	0.67188328298677
5.2374643256464	0.67249121895378
5.2310671436050	0.67310442685490
5.2246855698850	0.67372288574892
5.2183195474326	0.67434657432073
5.2119690194715	0.67497547087639
5.2056339295016	0.67560955333820
5.1993142212973	0.67624879923969
5.1930098389052	0.67689318572062
5.1867207266436	0.67754268952195
5.1804468290997	0.67819728698076
5.1741880911288	0.67885695402520
5.1679444578521	0.67952166616935
5.1617158746556	0.68019139850815
5.1555022871883	0.68086612571224
5.1493036413604	0.68154582202280
5.1431198833419	0.68223046124639
5.1369509595613	0.68292001674976
5.1307968167037	0.68361446145470
5.1246574017094	0.68431376783276
5.1185326617722	0.68501790790012
5.1124225443383	0.68572685321232
5.1063269971044	0.68644057485904
5.1002459680163	0.68715904345891
5.0941794052676	0.68788222915423
5.0881272572980	0.68861010160577
5.0820894727920	0.68934262998756
5.0760660006773	0.69007978298163
5.0700567901235	0.69082152877279
5.0640617905405	0.69156783504346
5.0580809515775	0.69231866896845
5.0521142231210	0.69307399720975
5.0461615552937	0.69383378591137
5.0402228984533	0.69459800069422
5.0342982031906	0.69536660665089
5.0283874203287	0.69613956834060
5.0224905009214	0.69691684978407
5.0166073962517	0.69769841445845
5.0107380578305	0.69848422529228
5.0048824373957	0.69927424466048
4.9990404869101	0.70006843437936
4.9932121585610	0.70086675570169
4.9873974047579	0.70166916931174
4.9815961781323	0.70247563532049
4.9758084315353	0.70328611326074
4.9700341180371	0.70410056208234
4.9642731909256	0.70491894014750
4.9585256037049	0.70574120522604
4.9527913100942	0.70656731449082
4.9470702640264	0.70739722451316
4.9413624196473	0.70823089125830
4.9356677313138	0.70906827008098
4.9299861535932	0.70990931572106
4.9243176412615	0.71075398229919
4.9186621493027	0.71160222331259
4.9130196329072	0.71245399163087
4.9073900474709	0.71330923949195
4.9017733485939	0.71416791849808
4.8961694920790	0.71502997961186
4.8905784339315	0.71589537315250
4.8850001303569	0.71676404879200
4.8794345377604	0.71763595555154
4.8738816127459	0.71851104179796
4.8683413121143	0.71938925524030
4.8628135928629	0.72027054292643
4.8572984121841	0.72115485123991
4.8517957274640	0.72204212589679
4.8463054962819	0.72293231194267
4.8408276764088	0.72382535374983
4.8353622258065	0.72472119501443
