#Parameters = {thARC=0.2; nARC=1; thsub=1; p=1; nSub=4.25}
#"Wavelength / um"	"T (704) [Real Part]"
#---------------------------------------
14.989622900000	0.61677998765532
14.937342202292	0.61682238824351
14.885424925521	0.61686353801598
14.833867293419	0.61690345455392
14.782665581854	0.61694215535257
14.731816117936	0.61697965781973
14.681315279138	0.61701597927446
14.631159492435	0.61705113694573
14.581345233463	0.61708514797109
14.531869025691	0.61711802939539
14.482727439614	0.61714979816957
14.433917091960	0.61718047114935
14.385434644914	0.61721006509410
14.337276805356	0.61723859666566
14.289440324118	0.61726608242716
14.241921995249	0.61729253884194
14.194718655303	0.61731798227246
14.147827182633	0.61734242897920
14.101244496707	0.61736589511970
14.054967557431	0.61738839674748
14.008993364486	0.61740994981110
13.963318956684	0.61743057015320
13.917941411328	0.61745027350959
13.872857843591	0.61746907550832
13.828065405904	0.61748699166882
13.783561287356	0.61750403740110
13.739342713107	0.61752022800484
13.695406943810	0.61753557866870
13.651751275046	0.61755010446946
13.608373036768	0.61756382037134
13.565269592760	0.61757674122527
13.522438340099	0.61758888176819
13.479876708633	0.61760025662240
13.437582160466	0.61761088029489
13.395552189455	0.61762076717676
13.353784320713	0.61762993154264
13.312276110124	0.61763838755006
13.271025143869	0.61764614923898
13.230029037952	0.61765323053124
13.189285437747	0.61765964523006
13.148792017544	0.61766540701959
13.108546480105	0.61767052946447
13.068546556234	0.61767502600937
13.028790004346	0.61767890997864
12.989274610052	0.61768219457590
12.949998185745	0.61768489288369
12.910958570198	0.61768701786317
12.872153628167	0.61768858235375
12.833581250000	0.61768959907289
12.795239351259	0.61769008061576
12.757125872340	0.61769003945503
12.719238778108	0.61768948794065
12.681576057530	0.61768843829964
12.644135723323	0.61768690263593
12.606915811606	0.61768489293016
12.569914381551	0.61768242103961
12.533129515050	0.61767949869801
12.496559316382	0.61767613751551
12.460201911887	0.61767234897854
12.424055449648	0.61766814444981
12.388118099174	0.61766353516822
12.352388051092	0.61765853224890
12.316863516845	0.61765314668313
12.281542728390	0.61764738933846
12.246423937908	0.61764127095865
12.211505417515	0.61763480216380
12.176785458976	0.61762799345037
12.142262373431	0.61762085519132
12.107934491115	0.61761339763618
12.073800161095	0.61760563091118
12.039857751004	0.61759756501943
12.006105646776	0.61758920984104
11.972542252396	0.61758057513331
11.939165989646	0.61757167053095
11.905975297855	0.61756250554624
11.872968633663	0.61755308956928
11.840144470774	0.61754343186827
11.807501299724	0.61753354158968
11.775037627651	0.61752342775862
11.742751978065	0.61751309927905
11.710642890625	0.61750256493413
11.678708920919	0.61749183338651
11.646948640249	0.61748091317867
11.615360635413	0.61746981273326
11.583943508501	0.61745854035348
11.552695876686	0.61744710422343
11.521616372022	0.61743551240850
11.490703641242	0.61742377285577
11.459956345566	0.61741189339443
11.429373160503	0.61739988173620
11.398952775665	0.61738774547577
11.368693894577	0.61737549209122
11.338595234493	0.61736312894455
11.308655526217	0.61735066328209
11.278873513920	0.61733810223501
11.249247954972	0.61732545281981
11.219777619760	0.61731272193885
11.190461291527	0.61729991638083
11.161297766195	0.61728704282136
11.132285852209	0.61727410782347
11.103424370370	0.61726111783819
11.074712153676	0.61724807920509
11.046148047163	0.61723499815283
11.017730907755	0.61722188079980
10.989459604106	0.61720873315465
10.961333016453	0.61719556111695
10.933350036470	0.61718237047773
10.905509567115	0.61716916692014
10.877810522496	0.61715595602010
10.850251827723	0.61714274324685
10.822832418773	0.61712953396370
10.795551242348	0.61711633342860
10.768407255747	0.61710314679483
10.741399426729	0.61708997911166
10.714526733381	0.61707683532506
10.687788163993	0.61706372027831
10.661182716927	0.61705063871276
10.634709400497	0.61703759526848
10.608367232838	0.61702459448500
10.582155241793	0.61701164080198
10.556072464789	0.61699873855996
10.530117948718	0.61698589200105
10.504290749825	0.61697310526970
10.478589933590	0.61696038241339
10.453014574616	0.61694772738341
10.427563756522	0.61693514403557
10.402236571825	0.61692263613097
10.377032121841	0.61691020733677
10.351949516575	0.61689786122691
10.326987874612	0.61688560128291
10.302146323024	0.61687343089465
10.277423997257	0.61686135336111
10.252820041040	0.61684937189116
10.228333606278	0.61683748960436
10.203963852961	0.61682570953174
10.179709949066	0.61681403461660
10.155571070461	0.61680246771526
10.131546400811	0.61679101159794
10.107635131490	0.61677966894948
10.083836461487	0.61676844237022
10.060149597315	0.61675733437674
10.036573752929	0.61674634740271
10.013108149633	0.61673548379972
9.9897520159947	0.61672474583806
9.9665045877660	0.61671413570756
9.9433651077944	0.61670365551840
9.9203328259431	0.61669330730195
9.8974069990096	0.61668309301160
9.8745868906456	0.61667301452357
9.8518717712783	0.61666307363774
9.8292609180328	0.61665327207850
9.8067536146549	0.61664361149558
9.7843491514360	0.61663409346486
9.7620468251384	0.61662471948926
9.7398459389214	0.61661549099951
9.7177458022690	0.61660640935503
9.6957457309185	0.61659747584478
9.6738450467893	0.61658869168806
9.6520430779137	0.61658005803539
9.6303391583681	0.61657157596931
9.6087326282051	0.61656324650527
9.5872228333866	0.61655507059243
9.5658091257179	0.61654704911454
9.5444908627826	0.61653918289074
9.5232674078780	0.61653147267643
9.5021381299525	0.61652391916411
9.4811024035421	0.61651652298423
9.4601596087094	0.61650928470599
9.4393091309824	0.61650220483823
9.4185503612944	0.61649528383025
9.3978826959248	0.61648852207263
9.3773055364404	0.61648191989811
9.3568182896380	0.61647547758239
9.3364203674868	0.61646919534499
9.3161111870727	0.61646307335006
9.2958901705426	0.61645711170725
9.2757567450495	0.61645131047252
9.2557103426984	0.61644566964895
9.2357504004929	0.61644018918762
9.2158763602828	0.61643486898839
9.1960876687117	0.61642970890078
9.1763837771656	0.61642470872471
9.1567641417227	0.61641986821141
9.1372282231027	0.61641518706420
9.1177754866180	0.61641066493930
9.0984054021244	0.61640630144666
9.0791174439733	0.61640209615077
9.0599110909640	0.61639804857147
9.0407858262967	0.61639415818477
9.0217411375263	0.61639042442363
9.0027765165165	0.61638684667878
8.9838914593947	0.61638342429954
8.9650854665072	0.61638015659457
8.9463580423754	0.61637704283270
8.9277086956522	0.61637408224372
8.9091369390788	0.61637127401916
8.8906422894425	0.61636861731307
8.8722242675348	0.61636611124281
8.8538823981099	0.61636375488983
8.8356162098438	0.61636154730045
8.8174252352941	0.61635948748661
8.7993090108600	0.61635757442668
8.7812670767428	0.61635580706617
8.7632989769073	0.61635418431854
8.7454042590432	0.61635270506592
8.7275824745269	0.61635136815990
8.7098331783847	0.61635017242225
8.6921559292549	0.61634911664568
8.6745502893519	0.61634819959458
8.6570158244297	0.61634742000575
8.6395521037464	0.61634677658914
8.6221587000288	0.61634626802859
8.6048351894374	0.61634589298254
8.5875811515325	0.61634565008474
8.5703961692396	0.61634553794499
8.5532798288160	0.61634555514987
8.5362317198178	0.61634570026337
8.5192514350668	0.61634597182768
8.5023385706183	0.61634636836385
8.4854927257288	0.61634688837246
8.4687135028249	0.61634753033436
8.4520005074711	0.61634829271132
8.4353533483399	0.61634917394672
8.4187716371806	0.61635017246620
8.4022549887892	0.61635128667837
8.3858030209790	0.61635251497547
8.3694153545505	0.61635385573398
8.3530916132627	0.61635530731533
8.3368314238042	0.61635686806653
8.3206344157646	0.61635853632079
8.3045002216066	0.61636031039821
8.2884284766381	0.61636218860636
8.2724188189845	0.61636416924094
8.2564708895621	0.61636625058641
8.2405843320506	0.61636843091656
8.2247587928669	0.61637070849518
8.2089939211391	0.61637308157664
8.1932893686800	0.61637554840648
8.1776447899618	0.61637810722202
8.1620598420909	0.61638075625296
8.1465341847826	0.61638349372192
8.1310674803363	0.61638631784510
8.1156593936113	0.61638922683275
8.1003095920022	0.61639221888983
8.0850177454153	0.61639529221650
8.0697835262450	0.61639844500874
8.0546066093498	0.61640167545885
8.0394866720300	0.61640498175601
8.0244233940043	0.61640836208681
8.0094164573871	0.61641181463582
7.9944655466667	0.61641533758606
7.9795703486825	0.61641892911956
7.9647305526036	0.61642258741788
7.9499458499072	0.61642631066256
7.9352159343568	0.61643009703570
7.9205405019815	0.61643394472041
7.9059192510549	0.61643785190130
7.8913518820742	0.61644181676499
7.8768380977404	0.61644583750056
7.8623776029373	0.61644991230004
7.8479701047120	0.61645403935887
7.8336153122550	0.61645821687635
7.8193129368805	0.61646244305613
7.8050626920073	0.61646671610659
7.7908642931393	0.61647103424136
7.7767174578470	0.61647539567969
7.7626219057483	0.61647979864693
7.7485773584906	0.61648424137489
7.7345835397317	0.61648872210233
7.7206401751223	0.61649323907532
7.7067469922879	0.61649779054764
7.6929037208109	0.61650237478122
7.6791100922131	0.61650699004648
7.6653658399386	0.61651163462276
7.6516706993364	0.61651630679866
7.6380244076433	0.61652100487245
7.6244267039674	0.61652572715239
7.6108773292714	0.61653047195713
7.5973760263558	0.61653523761604
7.5839225398432	0.61654002246957
7.5705166161616	0.61654482486958
7.5571580035291	0.61654964317967
7.5438464519376	0.61655447577553
7.5305817131374	0.61655932104523
7.5173635406219	0.61656417738958
7.5041916896120	0.61656904322237
7.4910659170415	0.61657391697074
7.4779859815415	0.61657879707544
7.4649516434263	0.61658368199113
7.4519626646781	0.61658857018667
7.4390188089330	0.61659346014536
7.4261198414664	0.61659835036526
7.4132655291790	0.61660323935944
7.4004556405826	0.61660812565621
7.3876899457861	0.61661300779941
7.3749682164822	0.61661788434863
7.3622902259332	0.61662275387945
7.3496557489581	0.61662761498370
7.3370645619187	0.61663246626966
7.3245164427071	0.61663730636228
7.3120111707317	0.61664213390342
7.2995485269053	0.61664694755201
7.2871282936315	0.61665174598431
7.2747502547925	0.61665652789409
7.2624141957364	0.61666129199276
7.2501199032648	0.61666603700965
7.2378671656205	0.61667076169213
7.2256557724753	0.61667546480576
7.2134855149182	0.61668014513453
7.2013561854432	0.61668480148095
7.1892675779376	0.61668943266623
7.1772194876706	0.61669403753044
7.1652117112811	0.61669861493263
7.1532440467669	0.61670316375098
7.1413162934731	0.61670768288290
7.1294282520809	0.61671217124521
7.1175797245964	0.61671662777421
7.1057705143399	0.61672105142579
7.0940004259347	0.61672544117559
7.0822692652965	0.61672979601904
7.0705768396226	0.61673411497146
7.0589229573817	0.61673839706821
7.0473074283028	0.61674264136469
7.0357300633654	0.61674684693648
7.0241906747891	0.61675101287939
7.0126890760234	0.61675513830951
7.0012250817375	0.61675922236329
6.9897985078107	0.61676326419761
6.9784091713222	0.61676726298979
6.9670568905415	0.61677121793766
6.9557414849188	0.61677512825960
6.9444627750753	0.61677899319456
6.9332205827937	0.61678281200211
6.9220147310090	0.61678658396243
6.9108450437990	0.61679030837635
6.8997113463751	0.61679398456538
6.8886134650735	0.61679761187165
6.8775512273457	0.61680118965801
6.8665244617499	0.61680471730793
6.8555329979419	0.61680819422556
6.8445766666667	0.61681161983568
6.8336552997493	0.61681499358370
6.8227687300865	0.61681831493563
6.8119167916383	0.61682158337805
6.8010993194192	0.61682479841808
6.7903161494904	0.61682795958334
6.7795671189507	0.61683106642191
6.7688520659291	0.61683411850227
6.7581708295762	0.61683711541328
6.7475232500563	0.61684005676408
6.7369091685393	0.61684294218406
6.7263284271932	0.61684577132280
6.7157808691756	0.61684854384996
6.7052663386267	0.61685125945523
6.6947846806610	0.61685391784828
6.6843357413601	0.61685651875861
6.6739193677649	0.61685906193552
6.6635354078684	0.61686154714799
6.6531837106081	0.61686397418460
6.6428641258586	0.61686634285341
6.6325765044248	0.61686865298186
6.6223206980340	0.61687090441669
6.6120965593295	0.61687309702377
6.6019039418630	0.61687523068805
6.5917427000879	0.61687730531339
6.5816126893524	0.61687932082246
6.5715137658922	0.61688127715660
6.5614457868243	0.61688317427569
6.5514086101399	0.61688501215803
6.5414020946978	0.61688679080017
6.5314261002179	0.61688851021681
6.5214804872743	0.61689017044061
6.5115651172893	0.61689177152207
6.5016798525266	0.61689331352936
6.4918245560849	0.61689479654818
6.4819990918919	0.61689622068159
6.4722033246978	0.61689758604983
6.4624371200690	0.61689889279020
6.4527003443823	0.61690014105684
6.4429928648184	0.61690133102061
6.4333145493562	0.61690246286885
6.4236652667667	0.61690353680526
6.4140448866068	0.61690455304970
6.4044532792138	0.61690551183799
6.3948903156997	0.61690641342173
6.3853558679446	0.61690725806814
6.3758498085921	0.61690804605984
6.3663720110427	0.61690877769463
6.3569223494487	0.61690945328537
6.3475006987084	0.61691007315970
6.3381069344609	0.61691063765989
6.3287409330800	0.61691114714260
6.3194025716695	0.61691160197870
6.3100917280572	0.61691200255306
6.3008082807902	0.61691234926432
6.2915521091291	0.61691264252470
6.2823230930427	0.61691288275975
6.2731211132036	0.61691307040817
6.2639460509820	0.61691320592159
6.2547977884415	0.61691328976430
6.2456762083333	0.61691332241310
6.2365811940919	0.61691330435701
6.2275126298297	0.61691323609709
6.2184704003319	0.61691311814617
6.2094543910522	0.61691295102867
6.2004644881075	0.61691273528034
6.1915005782734	0.61691247144800
6.1825625489792	0.61691216008937
6.1736502883031	0.61691180177279
6.1647636849681	0.61691139707699
6.1559026283368	0.61691094659087
6.1470670084068	0.61691045091323
6.1382567158067	0.61690991065256
6.1294716417910	0.61690932642679
6.1207116782360	0.61690869886302
6.1119767176351	0.61690802859734
6.1032666530945	0.61690731627453
6.0945813783289	0.61690656254782
6.0859207876573	0.61690576807868
6.0772847759984	0.61690493353654
6.0686732388664	0.61690405959857
6.0600860723671	0.61690314694939
6.0515231731934	0.61690219628088
6.0429844386212	0.61690120829188
6.0344697665056	0.61690018368799
6.0259790552764	0.61689912318128
6.0175122039342	0.61689802749004
6.0090691120465	0.61689689733856
6.0006496797438	0.61689573345689
5.9922538077154	0.61689453658053
5.9838813972056	0.61689330745023
5.9755323500100	0.61689204681175
5.9672065684713	0.61689075541554
5.9589039554760	0.61688943401659
5.9506244144502	0.61688808337409
5.9423678493558	0.61688670425124
5.9341341646873	0.61688529741497
5.9259232654675	0.61688386363572
5.9177350572444	0.61688240368716
5.9095694460871	0.61688091834594
5.9014263385827	0.61687940839150
5.8933056418321	0.61687787460575
5.8852072634472	0.61687631777287
5.8771311115468	0.61687473867903
5.8690770947533	0.61687313811221
5.8610451221896	0.61687151686187
5.8530351034752	0.61686987571877
5.8450469487229	0.61686821547469
5.8370805685358	0.61686653692223
5.8291358740035	0.61686484085454
5.8212127766990	0.61686312806506
5.8133111886756	0.61686139934733
5.8054310224632	0.61685965549474
5.7975721910656	0.61685789730026
5.7897346079567	0.61685612555625
5.7819181870781	0.61685434105418
5.7741228428351	0.61685254458446
5.7663484900942	0.61685073693615
5.7585950441798	0.61684891889674
5.7508624208709	0.61684709125198
5.7431505363985	0.61684525478556
5.7354593074421	0.61684341027896
5.7277886511272	0.61684155851121
5.7201384850219	0.61683970025864
5.7125087271341	0.61683783629468
5.7048992959087	0.61683596738965
5.6973101102242	0.61683409431053
5.6897410893908	0.61683221782074
5.6821921531463	0.61683033867996
5.6746632216544	0.61682845764386
5.6671542155009	0.61682657546397
5.6596650556919	0.61682469288739
5.6521956636501	0.61682281065664
5.6447459612126	0.61682092950945
5.6373158706281	0.61681905017853
5.6299053145540	0.61681717339140
5.6225142160540	0.61681529987019
5.6151424985952	0.61681343033143
5.6077900860456	0.61681156548587
5.6004569026714	0.61680970603830
5.5931428731343	0.61680785268732
5.5858479224893	0.61680600612523
5.5785719761816	0.61680416703776
5.5713149600446	0.61680233610394
5.5640768002970	0.61680051399594
5.5568574235403	0.61679870137883
5.5496567567568	0.61679689891047
5.5424747273063	0.61679510724131
5.5353112629247	0.61679332701421
5.5281662917204	0.61679155886431
5.5210397421731	0.61678980341884
5.5139315431304	0.61678806129697
5.5068416238060	0.61678633310966
5.4997699137773	0.61678461945947
5.4927163429828	0.61678292094046
5.4856808417200	0.61678123813801
5.4786633406433	0.61677957162867
5.4716637707611	0.61677792198004
5.4646820634342	0.61677628975061
5.4577181503732	0.61677467548962
5.4507719636364	0.61677307973694
5.4438434356274	0.61677150302294
5.4369324990932	0.61676994586833
5.4300390871219	0.61676840878409
5.4231631331404	0.61676689227128
5.4163045709124	0.61676539682099
5.4094633345363	0.61676392291415
5.4026393584430	0.61676247102148
5.3958325773938	0.61676104160335
5.3890429264785	0.61675963510967
5.3822703411131	0.61675825197980
5.3755147570378	0.61675689264243
5.3687761103152	0.61675555751549
5.3620543373278	0.61675424700609
5.3553493747767	0.61675296151035
5.3486611596789	0.61675170141339
5.3419896293656	0.61675046708920
5.3353347214807	0.61674925890058
5.3286963739780	0.61674807719904
5.3220745251198	0.61674692232474
5.3154691134752	0.61674579460642
5.3088800779175	0.61674469436131
5.3023073576229	0.61674362189510
5.2957508920685	0.61674257750184
5.2892106210303	0.61674156146391
5.2826864845815	0.61674057405194
5.2761784230905	0.61673961552479
5.2696863772192	0.61673868612945
5.2632102879213	0.61673778610106
5.2567500964405	0.61673691566281
5.2503057443082	0.61673607502591
5.2438771733427	0.61673526438962
5.2374643256464	0.61673448394110
5.2310671436050	0.61673373385550
5.2246855698850	0.61673301429586
5.2183195474326	0.61673232541309
5.2119690194715	0.61673166734601
5.2056339295016	0.61673104022126
5.1993142212973	0.61673044415335
5.1930098389052	0.61672987924459
5.1867207266436	0.61672934558515
5.1804468290997	0.61672884325301
5.1741880911288	0.61672837231399
5.1679444578521	0.61672793282172
5.1617158746556	0.61672752481769
5.1555022871883	0.61672714833124
5.1493036413604	0.61672680337957
5.1431198833419	0.61672648996776
5.1369509595613	0.61672620808881
5.1307968167037	0.61672595772365
5.1246574017094	0.61672573884114
5.1185326617722	0.61672555139818
5.1124225443383	0.61672539533965
5.1063269971044	0.61672527059852
5.1002459680163	0.61672517709585
5.0941794052676	0.61672511474086
5.0881272572980	0.61672508343095
5.0820894727920	0.61672508305179
5.0760660006773	0.61672511347734
5.0700567901235	0.61672517456990
5.0640617905405	0.61672526618024
5.0580809515775	0.61672538814755
5.0521142231210	0.61672554029964
5.0461615552937	0.61672572245287
5.0402228984533	0.61672593441236
5.0342982031906	0.61672617597195
5.0283874203287	0.61672644691437
5.0224905009214	0.61672674701126
5.0166073962517	0.61672707602327
5.0107380578305	0.61672743370019
5.0048824373957	0.61672781978099
4.9990404869101	0.61672823399394
4.9932121585610	0.61672867605669
4.9873974047579	0.61672914567640
4.9815961781323	0.61672964254982
4.9758084315353	0.61673016636341
4.9700341180371	0.61673071679342
4.9642731909256	0.61673129350606
4.9585256037049	0.61673189615757
4.9527913100942	0.61673252439432
4.9470702640264	0.61673317785301
4.9413624196473	0.61673385616069
4.9356677313138	0.61673455893500
4.9299861535932	0.61673528578418
4.9243176412615	0.61673603630730
4.9186621493027	0.61673681009434
4.9130196329072	0.61673760672635
4.9073900474709	0.61673842577558
4.9017733485939	0.61673926680561
4.8961694920790	0.61674012937154
4.8905784339315	0.61674101302007
4.8850001303569	0.61674191728972
4.8794345377604	0.61674284171093
4.8738816127459	0.61674378580623
4.8683413121143	0.61674474909041
4.8628135928629	0.61674573107067
4.8572984121841	0.61674673124676
4.8517957274640	0.61674774911120
4.8463054962819	0.61674878414938
4.8408276764088	0.61674983583976
4.8353622258065	0.61675090365407
