#Parameters = {thARC=1; nARC=1; thsub=1; p=1; nSub=4.25}
#"Wavelength / um"	"T (708) [Real Part]"
#---------------------------------------
14.989622900000	0.61677927373322
14.937342202292	0.61677955744861
14.885424925521	0.61677982331042
14.833867293419	0.61678007176234
14.782665581854	0.61678030324386
14.731816117936	0.61678051819029
14.681315279138	0.61678071703273
14.631159492435	0.61678090019805
14.581345233463	0.61678106810886
14.531869025691	0.61678122118351
14.482727439614	0.61678135983605
14.433917091960	0.61678148447624
14.385434644914	0.61678159550948
14.337276805356	0.61678169333687
14.289440324118	0.61678177835513
14.241921995249	0.61678185095663
14.194718655303	0.61678191152933
14.147827182633	0.61678196045683
14.101244496707	0.61678199811828
14.054967557431	0.61678202488845
14.008993364486	0.61678204113765
13.963318956684	0.61678204723177
13.917941411328	0.61678204353223
13.872857843591	0.61678203039602
13.828065405904	0.61678200817562
13.783561287356	0.61678197721910
13.739342713107	0.61678193786998
13.695406943810	0.61678189046736
13.651751275046	0.61678183534580
13.608373036768	0.61678177283539
13.565269592760	0.61678170326174
13.522438340099	0.61678162694591
13.479876708633	0.61678154420451
13.437582160466	0.61678145534961
13.395552189455	0.61678136068880
13.353784320713	0.61678126052515
13.312276110124	0.61678115515722
13.271025143869	0.61678104487910
13.230029037952	0.61678092998034
13.189285437747	0.61678081074602
13.148792017544	0.61678068745671
13.108546480105	0.61678056038850
13.068546556234	0.61678042981298
13.028790004346	0.61678029599727
12.989274610052	0.61678015920401
12.949998185745	0.61678001969138
12.910958570198	0.61677987771308
12.872153628167	0.61677973351837
12.833581250000	0.61677958735206
12.795239351259	0.61677943945452
12.757125872340	0.61677929006170
12.719238778108	0.61677913940512
12.681576057530	0.61677898771191
12.644135723323	0.61677883520477
12.606915811606	0.61677868210206
12.569914381551	0.61677852861774
12.533129515050	0.61677837496142
12.496559316382	0.61677822133836
12.460201911887	0.61677806794948
12.424055449648	0.61677791499141
12.388118099174	0.61677776265644
12.352388051092	0.61677761113261
12.316863516845	0.61677746060366
12.281542728390	0.61677731124910
12.246423937908	0.61677716324418
12.211505417515	0.61677701675995
12.176785458976	0.61677687196325
12.142262373431	0.61677672901673
12.107934491115	0.61677658807888
12.073800161095	0.61677644930407
12.039857751004	0.61677631284250
12.006105646776	0.61677617884031
11.972542252396	0.61677604743953
11.939165989646	0.61677591877814
11.905975297855	0.61677579299008
11.872968633663	0.61677567020527
11.840144470774	0.61677555054963
11.807501299724	0.61677543414513
11.775037627651	0.61677532110976
11.742751978065	0.61677521155761
11.710642890625	0.61677510559887
11.678708920919	0.61677500333984
11.646948640249	0.61677490488298
11.615360635413	0.61677481032694
11.583943508501	0.61677471976654
11.552695876686	0.61677463329285
11.521616372022	0.61677455099320
11.490703641242	0.61677447295119
11.459956345566	0.61677439924674
11.429373160503	0.61677432995608
11.398952775665	0.61677426515185
11.368693894577	0.61677420490305
11.338595234493	0.61677414927511
11.308655526217	0.61677409832992
11.278873513920	0.61677405212584
11.249247954972	0.61677401071776
11.219777619760	0.61677397415709
11.190461291527	0.61677394249183
11.161297766195	0.61677391576656
11.132285852209	0.61677389402251
11.103424370370	0.61677387729758
11.074712153676	0.61677386562635
11.046148047163	0.61677385904013
11.017730907755	0.61677385756701
10.989459604106	0.61677386123184
10.961333016453	0.61677387005632
10.933350036470	0.61677388405901
10.905509567115	0.61677390325533
10.877810522496	0.61677392765765
10.850251827723	0.61677395727530
10.822832418773	0.61677399211459
10.795551242348	0.61677403217886
10.768407255747	0.61677407746850
10.741399426729	0.61677412798102
10.714526733381	0.61677418371102
10.687788163993	0.61677424465029
10.661182716927	0.61677431078782
10.634709400497	0.61677438210981
10.608367232838	0.61677445859976
10.582155241793	0.61677454023845
10.556072464789	0.61677462700401
10.530117948718	0.61677471887194
10.504290749825	0.61677481581516
10.478589933590	0.61677491780403
10.453014574616	0.61677502480640
10.427563756522	0.61677513678763
10.402236571825	0.61677525371065
10.377032121841	0.61677537553597
10.351949516575	0.61677550222175
10.326987874612	0.61677563372380
10.302146323024	0.61677576999563
10.277423997257	0.61677591098851
10.252820041040	0.61677605665147
10.228333606278	0.61677620693137
10.203963852961	0.61677636177292
10.179709949066	0.61677652111871
10.155571070461	0.61677668490927
10.131546400811	0.61677685308308
10.107635131490	0.61677702557664
10.083836461487	0.61677720232449
10.060149597315	0.61677738325924
10.036573752929	0.61677756831160
10.013108149633	0.61677775741048
9.9897520159947	0.61677795048293
9.9665045877660	0.61677814745426
9.9433651077944	0.61677834824805
9.9203328259431	0.61677855278617
9.8974069990096	0.61677876098883
9.8745868906456	0.61677897277465
9.8518717712783	0.61677918806063
9.8292609180328	0.61677940676226
9.8067536146549	0.61677962879350
9.7843491514360	0.61677985406687
9.7620468251384	0.61678008249343
9.7398459389214	0.61678031398287
9.7177458022690	0.61678054844353
9.6957457309185	0.61678078578240
9.6738450467893	0.61678102590524
9.6520430779137	0.61678126871654
9.6303391583681	0.61678151411958
9.6087326282051	0.61678176201651
9.5872228333866	0.61678201230831
9.5658091257179	0.61678226489491
9.5444908627826	0.61678251967515
9.5232674078780	0.61678277654688
9.5021381299525	0.61678303540696
9.4811024035421	0.61678329615133
9.4601596087094	0.61678355867499
9.4393091309824	0.61678382287210
9.4185503612944	0.61678408863598
9.3978826959248	0.61678435585917
9.3773055364404	0.61678462443344
9.3568182896380	0.61678489424984
9.3364203674868	0.61678516519873
9.3161111870727	0.61678543716986
9.2958901705426	0.61678571005231
9.2757567450495	0.61678598373464
9.2557103426984	0.61678625810485
9.2357504004929	0.61678653305042
9.2158763602828	0.61678680845838
9.1960876687117	0.61678708421534
9.1763837771656	0.61678736020749
9.1567641417227	0.61678763632067
9.1372282231027	0.61678791244039
9.1177754866180	0.61678818845188
9.0984054021244	0.61678846424009
9.0791174439733	0.61678873968977
9.0599110909640	0.61678901468548
9.0407858262967	0.61678928911162
9.0217411375263	0.61678956285246
9.0027765165165	0.61678983579220
8.9838914593947	0.61679010781500
8.9650854665072	0.61679037880496
8.9463580423754	0.61679064864623
8.9277086956522	0.61679091722301
8.9091369390788	0.61679118441955
8.8906422894425	0.61679145012023
8.8722242675348	0.61679171420959
8.8538823981099	0.61679197657232
8.8356162098438	0.61679223709334
8.8174252352941	0.61679249565781
8.7993090108600	0.61679275215114
8.7812670767428	0.61679300645907
8.7632989769073	0.61679325846766
8.7454042590432	0.61679350806335
8.7275824745269	0.61679375513296
8.7098331783847	0.61679399956375
8.6921559292549	0.61679424124342
8.6745502893519	0.61679448006018
8.6570158244297	0.61679471590272
8.6395521037464	0.61679494866032
8.6221587000288	0.61679517822279
8.6048351894374	0.61679540448058
8.5875811515325	0.61679562732475
8.5703961692396	0.61679584664702
8.5532798288160	0.61679606233980
8.5362317198178	0.61679627429621
8.5192514350668	0.61679648241014
8.5023385706183	0.61679668657620
8.4854927257288	0.61679688668983
8.4687135028249	0.61679708264730
8.4520005074711	0.61679727434569
8.4353533483399	0.61679746168300
8.4187716371806	0.61679764455809
8.4022549887892	0.61679782287077
8.3858030209790	0.61679799652180
8.3694153545505	0.61679816541289
8.3530916132627	0.61679832944677
8.3368314238042	0.61679848852721
8.3206344157646	0.61679864255898
8.3045002216066	0.61679879144796
8.2884284766381	0.61679893510112
8.2724188189845	0.61679907342651
8.2564708895621	0.61679920633337
8.2405843320506	0.61679933373206
8.2247587928669	0.61679945553415
8.2089939211391	0.61679957165239
8.1932893686800	0.61679968200078
8.1776447899618	0.61679978649453
8.1620598420909	0.61679988505016
8.1465341847826	0.61679997758545
8.1310674803363	0.61680006401948
8.1156593936113	0.61680014427268
8.1003095920022	0.61680021826680
8.0850177454153	0.61680028592497
8.0697835262450	0.61680034717170
8.0546066093498	0.61680040193289
8.0394866720300	0.61680045013585
8.0244233940043	0.61680049170936
8.0094164573871	0.61680052658361
7.9944655466667	0.61680055469030
7.9795703486825	0.61680057596256
7.9647305526036	0.61680059033508
7.9499458499072	0.61680059774403
7.9352159343568	0.61680059812711
7.9205405019815	0.61680059142359
7.9059192510549	0.61680057757427
7.8913518820742	0.61680055652155
7.8768380977404	0.61680052820941
7.8623776029373	0.61680049258343
7.8479701047120	0.61680044959081
7.8336153122550	0.61680039918036
7.8193129368805	0.61680034130254
7.8050626920073	0.61680027590948
7.7908642931393	0.61680020295495
7.7767174578470	0.61680012239440
7.7626219057483	0.61680003418497
7.7485773584906	0.61679993828548
7.7345835397317	0.61679983465647
7.7206401751223	0.61679972326020
7.7067469922879	0.61679960406065
7.6929037208109	0.61679947702352
7.6791100922131	0.61679934211626
7.6653658399386	0.61679919930808
7.6516706993364	0.61679904856994
7.6380244076433	0.61679888987455
7.6244267039674	0.61679872319643
7.6108773292714	0.61679854851185
7.5973760263558	0.61679836579887
7.5839225398432	0.61679817503734
7.5705166161616	0.61679797620892
7.5571580035291	0.61679776929706
7.5438464519376	0.61679755428702
7.5305817131374	0.61679733116586
7.5173635406219	0.61679709992249
7.5041916896120	0.61679686054761
7.4910659170415	0.61679661303374
7.4779859815415	0.61679635737524
7.4649516434263	0.61679609356829
7.4519626646781	0.61679582161092
7.4390188089330	0.61679554150295
7.4261198414664	0.61679525324608
7.4132655291790	0.61679495684382
7.4004556405826	0.61679465230152
7.3876899457861	0.61679433962636
7.3749682164822	0.61679401882737
7.3622902259332	0.61679368991540
7.3496557489581	0.61679335290315
7.3370645619187	0.61679300780515
7.3245164427071	0.61679265463775
7.3120111707317	0.61679229341915
7.2995485269053	0.61679192416936
7.2871282936315	0.61679154691023
7.2747502547925	0.61679116166543
7.2624141957364	0.61679076846044
7.2501199032648	0.61679036732257
7.2378671656205	0.61678995828094
7.2256557724753	0.61678954136646
7.2134855149182	0.61678911661188
7.2013561854432	0.61678868405171
7.1892675779376	0.61678824372227
7.1772194876706	0.61678779566168
7.1652117112811	0.61678733990982
7.1532440467669	0.61678687650836
7.1413162934731	0.61678640550073
7.1294282520809	0.61678592693212
7.1175797245964	0.61678544084948
7.1057705143399	0.61678494730151
7.0940004259347	0.61678444633863
7.0822692652965	0.61678393801302
7.0705768396226	0.61678342237855
7.0589229573817	0.61678289949083
7.0473074283028	0.61678236940714
7.0357300633654	0.61678183218649
7.0241906747891	0.61678128788955
7.0126890760234	0.61678073657866
7.0012250817375	0.61678017831783
6.9897985078107	0.61677961317274
6.9784091713222	0.61677904121067
6.9670568905415	0.61677846250056
6.9557414849188	0.61677787711295
6.9444627750753	0.61677728512000
6.9332205827937	0.61677668659545
6.9220147310090	0.61677608161461
6.9108450437990	0.61677547025439
6.8997113463751	0.61677485259321
6.8886134650735	0.61677422871106
6.8775512273457	0.61677359868944
6.8665244617499	0.61677296261137
6.8555329979419	0.61677232056135
6.8445766666667	0.61677167262539
6.8336552997493	0.61677101889094
6.8227687300865	0.61677035944691
6.8119167916383	0.61676969438365
6.8010993194192	0.61676902379292
6.7903161494904	0.61676834776789
6.7795671189507	0.61676766640312
6.7688520659291	0.61676697979453
6.7581708295762	0.61676628803941
6.7475232500563	0.61676559123636
6.7369091685393	0.61676488948533
6.7263284271932	0.61676418288754
6.7157808691756	0.61676347154552
6.7052663386267	0.61676275556305
6.6947846806610	0.61676203504516
6.6843357413601	0.61676131009810
6.6739193677649	0.61676058082934
6.6635354078684	0.61675984734754
6.6531837106081	0.61675910976253
6.6428641258586	0.61675836818527
6.6325765044248	0.61675762272788
6.6223206980340	0.61675687350358
6.6120965593295	0.61675612062668
6.6019039418630	0.61675536421255
6.5917427000879	0.61675460437764
6.5816126893524	0.61675384123938
6.5715137658922	0.61675307491626
6.5614457868243	0.61675230552773
6.5514086101399	0.61675153319421
6.5414020946978	0.61675075803705
6.5314261002179	0.61674998017854
6.5214804872743	0.61674919974187
6.5115651172893	0.61674841685109
6.5016798525266	0.61674763163114
6.4918245560849	0.61674684420774
6.4819990918919	0.61674605470748
6.4722033246978	0.61674526325768
6.4624371200690	0.61674446998647
6.4527003443823	0.61674367502270
6.4429928648184	0.61674287849594
6.4333145493562	0.61674208053646
6.4236652667667	0.61674128127519
6.4140448866068	0.61674048084372
6.4044532792138	0.61673967937425
6.3948903156997	0.61673887699960
6.3853558679446	0.61673807385314
6.3758498085921	0.61673727006881
6.3663720110427	0.61673646578107
6.3569223494487	0.61673566112489
6.3475006987084	0.61673485623569
6.3381069344609	0.61673405124938
6.3287409330800	0.61673324630227
6.3194025716695	0.61673244153109
6.3100917280572	0.61673163707295
6.3008082807902	0.61673083306529
6.2915521091291	0.61673002964590
6.2823230930427	0.61672922695286
6.2731211132036	0.61672842512455
6.2639460509820	0.61672762429957
6.2547977884415	0.61672682461676
6.2456762083333	0.61672602621516
6.2365811940919	0.61672522923400
6.2275126298297	0.61672443381264
6.2184704003319	0.61672364009055
6.2094543910522	0.61672284820734
6.2004644881075	0.61672205830266
6.1915005782734	0.61672127051622
6.1825625489792	0.61672048498773
6.1736502883031	0.61671970185692
6.1647636849681	0.61671892126346
6.1559026283368	0.61671814334700
6.1470670084068	0.61671736824706
6.1382567158067	0.61671659610308
6.1294716417910	0.61671582705436
6.1207116782360	0.61671506124002
6.1119767176351	0.61671429879901
6.1032666530945	0.61671353987006
6.0945813783289	0.61671278459165
6.0859207876573	0.61671203310200
6.0772847759984	0.61671128553903
6.0686732388664	0.61671054204035
6.0600860723671	0.61670980274321
6.0515231731934	0.61670906778450
6.0429844386212	0.61670833730071
6.0344697665056	0.61670761142789
6.0259790552764	0.61670689030166
6.0175122039342	0.61670617405715
6.0090691120465	0.61670546282899
6.0006496797438	0.61670475675128
5.9922538077154	0.61670405595757
5.9838813972056	0.61670336058083
5.9755323500100	0.61670267075341
5.9672065684713	0.61670198660705
5.9589039554760	0.61670130827281
5.9506244144502	0.61670063588107
5.9423678493558	0.61669996956152
5.9341341646873	0.61669930944309
5.9259232654675	0.61669865565396
5.9177350572444	0.61669800832153
5.9095694460871	0.61669736757239
5.9014263385827	0.61669673353228
5.8933056418321	0.61669610632608
5.8852072634472	0.61669548607780
5.8771311115468	0.61669487291052
5.8690770947533	0.61669426694640
5.8610451221896	0.61669366830663
5.8530351034752	0.61669307711141
5.8450469487229	0.61669249347994
5.8370805685358	0.61669191753038
5.8291358740035	0.61669134937984
5.8212127766990	0.61669078914432
5.8133111886756	0.61669023693875
5.8054310224632	0.61668969287691
5.7975721910656	0.61668915707143
5.7897346079567	0.61668862963374
5.7819181870781	0.61668811067411
5.7741228428351	0.61668760030155
5.7663484900942	0.61668709862384
5.7585950441798	0.61668660574748
5.7508624208709	0.61668612177767
5.7431505363985	0.61668564681832
5.7354593074421	0.61668518097197
5.7277886511272	0.61668472433981
5.7201384850219	0.61668427702165
5.7125087271341	0.61668383911589
5.7048992959087	0.61668341071949
5.6973101102242	0.61668299192799
5.6897410893908	0.61668258283543
5.6821921531463	0.61668218353437
5.6746632216544	0.61668179411586
5.6671542155009	0.61668141466940
5.6596650556919	0.61668104528294
5.6521956636501	0.61668068604287
5.6447459612126	0.61668033703396
5.6373158706281	0.61667999833938
5.6299053145540	0.61667967004066
5.6225142160540	0.61667935221766
5.6151424985952	0.61667904494858
5.6077900860456	0.61667874830992
5.6004569026714	0.61667846237646
5.5931428731343	0.61667818722127
5.5858479224893	0.61667792291562
5.5785719761816	0.61667766952906
5.5713149600446	0.61667742712933
5.5640768002970	0.61667719578236
5.5568574235403	0.61667697555225
5.5496567567568	0.61667676650128
5.5424747273063	0.61667656868986
5.5353112629247	0.61667638217652
5.5281662917204	0.61667620701789
5.5210397421731	0.61667604326871
5.5139315431304	0.61667589098179
5.5068416238060	0.61667575020799
5.4997699137773	0.61667562099622
5.4927163429828	0.61667550339340
5.4856808417200	0.61667539744450
5.4786633406433	0.61667530319244
5.4716637707611	0.61667522067816
5.4646820634342	0.61667514994055
5.4577181503732	0.61667509101647
5.4507719636364	0.61667504394069
5.4438434356274	0.61667500874594
5.4369324990932	0.61667498546285
5.4300390871219	0.61667497411994
5.4231631331404	0.61667497474364
5.4163045709124	0.61667498735823
5.4094633345363	0.61667501198587
5.4026393584430	0.61667504864658
5.3958325773938	0.61667509735819
5.3890429264785	0.61667515813640
5.3822703411131	0.61667523099468
5.3755147570378	0.61667531594434
5.3687761103152	0.61667541299449
5.3620543373278	0.61667552215201
5.3553493747767	0.61667564342155
5.3486611596789	0.61667577680556
5.3419896293656	0.61667592230423
5.3353347214807	0.61667607991548
5.3286963739780	0.61667624963501
5.3220745251198	0.61667643145622
5.3154691134752	0.61667662537027
5.3088800779175	0.61667683136600
5.3023073576229	0.61667704943000
5.2957508920685	0.61667727954652
5.2892106210303	0.61667752169755
5.2826864845815	0.61667777586275
5.2761784230905	0.61667804201947
5.2696863772192	0.61667832014273
5.2632102879213	0.61667861020525
5.2567500964405	0.61667891217739
5.2503057443082	0.61667922602721
5.2438771733427	0.61667955172039
5.2374643256464	0.61667988922030
5.2310671436050	0.61668023848796
5.2246855698850	0.61668059948202
5.2183195474326	0.61668097215881
5.2119690194715	0.61668135647228
5.2056339295016	0.61668175237403
5.1993142212973	0.61668215981332
5.1930098389052	0.61668257873703
5.1867207266436	0.61668300908967
5.1804468290997	0.61668345081342
5.1741880911288	0.61668390384809
5.1679444578521	0.61668436813110
5.1617158746556	0.61668484359753
5.1555022871883	0.61668533018012
5.1493036413604	0.61668582780922
5.1431198833419	0.61668633641282
5.1369509595613	0.61668685591658
5.1307968167037	0.61668738624379
5.1246574017094	0.61668792731538
5.1185326617722	0.61668847904994
5.1124225443383	0.61668904136372
5.1063269971044	0.61668961417062
5.1002459680163	0.61669019738221
5.0941794052676	0.61669079090771
5.0881272572980	0.61669139465402
5.0820894727920	0.61669200852573
5.0760660006773	0.61669263242507
5.0700567901235	0.61669326625201
5.0640617905405	0.61669390990417
5.0580809515775	0.61669456327690
5.0521142231210	0.61669522626322
5.0461615552937	0.61669589875389
5.0402228984533	0.61669658063739
5.0342982031906	0.61669727179991
5.0283874203287	0.61669797212540
5.0224905009214	0.61669868149555
5.0166073962517	0.61669939978978
5.0107380578305	0.61670012688529
5.0048824373957	0.61670086265707
4.9990404869101	0.61670160697787
4.9932121585610	0.61670235971823
4.9873974047579	0.61670312074652
4.9815961781323	0.61670388992890
4.9758084315353	0.61670466712937
4.9700341180371	0.61670545220976
4.9642731909256	0.61670624502976
4.9585256037049	0.61670704544691
4.9527913100942	0.61670785331665
4.9470702640264	0.61670866849227
4.9413624196473	0.61670949082501
4.9356677313138	0.61671032016399
4.9299861535932	0.61671115635628
4.9243176412615	0.61671199924688
4.9186621493027	0.61671284867877
4.9130196329072	0.61671370449290
4.9073900474709	0.61671456652820
4.9017733485939	0.61671543462161
4.8961694920790	0.61671630860812
4.8905784339315	0.61671718832072
4.8850001303569	0.61671807359049
4.8794345377604	0.61671896424658
4.8738816127459	0.61671986011621
4.8683413121143	0.61672076102474
4.8628135928629	0.61672166679565
4.8572984121841	0.61672257725056
4.8517957274640	0.61672349220926
4.8463054962819	0.61672441148974
4.8408276764088	0.61672533490819
4.8353622258065	0.61672626227901
