#Parameters = {thARC=0.4; nARC=1; thsub=1; p=1; nSub=4.25}
#"Wavelength / um"	"T (705) [Real Part]"
#---------------------------------------
14.989622900000	0.61677940573254
14.937342202292	0.61683291454306
14.885424925521	0.61688483493283
14.833867293419	0.61693518892479
14.782665581854	0.61698399845278
14.731816117936	0.61703128535934
14.681315279138	0.61707707139346
14.631159492435	0.61712137820847
14.581345233463	0.61716422735989
14.531869025691	0.61720564030334
14.482727439614	0.61724563839251
14.433917091960	0.61728424287715
14.385434644914	0.61732147490112
14.337276805356	0.61735735550044
14.289440324118	0.61739190560144
14.241921995249	0.61742514601888
14.194718655303	0.61745709745415
14.147827182633	0.61748778049353
14.101244496707	0.61751721560643
14.054967557431	0.61754542314372
14.008993364486	0.61757242333608
13.963318956684	0.61759823629238
13.917941411328	0.61762288199812
13.872857843591	0.61764638031388
13.828065405904	0.61766875097385
13.783561287356	0.61769001358434
13.739342713107	0.61771018762241
13.695406943810	0.61772929243445
13.651751275046	0.61774734723485
13.608373036768	0.61776437110470
13.565269592760	0.61778038299052
13.522438340099	0.61779540170302
13.479876708633	0.61780944591595
13.437582160466	0.61782253416489
13.395552189455	0.61783468484616
13.353784320713	0.61784591621574
13.312276110124	0.61785624638821
13.271025143869	0.61786569333576
13.230029037952	0.61787427488720
13.189285437747	0.61788200872703
13.148792017544	0.61788891239451
13.108546480105	0.61789500328287
13.068546556234	0.61790029863836
13.028790004346	0.61790481555956
12.989274610052	0.61790857099654
12.949998185745	0.61791158175018
12.910958570198	0.61791386447144
12.872153628167	0.61791543566071
12.833581250000	0.61791631166718
12.795239351259	0.61791650868823
12.757125872340	0.61791604276890
12.719238778108	0.61791492980129
12.681576057530	0.61791318552415
12.644135723323	0.61791082552233
12.606915811606	0.61790786522638
12.569914381551	0.61790431991214
12.533129515050	0.61790020470035
12.496559316382	0.61789553455632
12.460201911887	0.61789032428961
12.424055449648	0.61788458855374
12.388118099174	0.61787834184592
12.352388051092	0.61787159850685
12.316863516845	0.61786437272050
12.281542728390	0.61785667851395
12.246423937908	0.61784852975722
12.211505417515	0.61783994016321
12.176785458976	0.61783092328756
12.142262373431	0.61782149252860
12.107934491115	0.61781166112733
12.073800161095	0.61780144216742
12.039857751004	0.61779084857518
12.006105646776	0.61777989311968
11.972542252396	0.61776858841274
11.939165989646	0.61775694690909
11.905975297855	0.61774498090645
11.872968633663	0.61773270254566
11.840144470774	0.61772012381092
11.807501299724	0.61770725652988
11.775037627651	0.61769411237396
11.742751978065	0.61768070285849
11.710642890625	0.61766703934304
11.678708920919	0.61765313303167
11.646948640249	0.61763899497324
11.615360635413	0.61762463606174
11.583943508501	0.61761006703662
11.552695876686	0.61759529848321
11.521616372022	0.61758034083303
11.490703641242	0.61756520436427
11.459956345566	0.61754989920218
11.429373160503	0.61753443531952
11.398952775665	0.61751882253707
11.368693894577	0.61750307052406
11.338595234493	0.61748718879869
11.308655526217	0.61747118672870
11.278873513920	0.61745507353185
11.249247954972	0.61743885827653
11.219777619760	0.61742254988230
11.190461291527	0.61740615712049
11.161297766195	0.61738968861485
11.132285852209	0.61737315284213
11.103424370370	0.61735655813275
11.074712153676	0.61733991267145
11.046148047163	0.61732322449795
11.017730907755	0.61730650150770
10.989459604106	0.61728975145249
10.961333016453	0.61727298194126
10.933350036470	0.61725620044079
10.905509567115	0.61723941427644
10.877810522496	0.61722263063293
10.850251827723	0.61720585655513
10.822832418773	0.61718909894880
10.795551242348	0.61717236458145
10.768407255747	0.61715566008309
10.741399426729	0.61713899194711
10.714526733381	0.61712236653110
10.687788163993	0.61710579005767
10.661182716927	0.61708926861536
10.634709400497	0.61707280815949
10.608367232838	0.61705641451302
10.582155241793	0.61704009336747
10.556072464789	0.61702385028382
10.530117948718	0.61700769069342
10.504290749825	0.61699161989891
10.478589933590	0.61697564307516
10.453014574616	0.61695976527018
10.427563756522	0.61694399140614
10.402236571825	0.61692832628025
10.377032121841	0.61691277456578
10.351949516575	0.61689734081302
10.326987874612	0.61688202945025
10.302146323024	0.61686684478476
10.277423997257	0.61685179100384
10.252820041040	0.61683687217575
10.228333606278	0.61682209225079
10.203963852961	0.61680745506228
10.179709949066	0.61679296432760
10.155571070461	0.61677862364924
10.131546400811	0.61676443651578
10.107635131490	0.61675040630302
10.083836461487	0.61673653627494
10.060149597315	0.61672282958484
10.036573752929	0.61670928927634
10.013108149633	0.61669591828445
9.9897520159947	0.61668271943668
9.9665045877660	0.61666969545407
9.9433651077944	0.61665684895231
9.9203328259431	0.61664418244277
9.8974069990096	0.61663169833365
9.8745868906456	0.61661939893099
9.8518717712783	0.61660728643987
9.8292609180328	0.61659536296539
9.8067536146549	0.61658363051387
9.7843491514360	0.61657209099387
9.7620468251384	0.61656074621736
9.7398459389214	0.61654959790080
9.7177458022690	0.61653864766624
9.6957457309185	0.61652789704244
9.6738450467893	0.61651734746601
9.6520430779137	0.61650700028248
9.6303391583681	0.61649685674744
9.6087326282051	0.61648691802768
9.5872228333866	0.61647718520225
9.5658091257179	0.61646765926364
9.5444908627826	0.61645834111888
9.5232674078780	0.61644923159065
9.5021381299525	0.61644033141842
9.4811024035421	0.61643164125955
9.4601596087094	0.61642316169045
9.4393091309824	0.61641489320765
9.4185503612944	0.61640683622899
9.3978826959248	0.61639899109466
9.3773055364404	0.61639135806840
9.3568182896380	0.61638393733856
9.3364203674868	0.61637672901928
9.3161111870727	0.61636973315154
9.2958901705426	0.61636294970432
9.2757567450495	0.61635637857572
9.2557103426984	0.61635001959407
9.2357504004929	0.61634387251901
9.2158763602828	0.61633793704266
9.1960876687117	0.61633221279068
9.1763837771656	0.61632669932339
9.1567641417227	0.61632139613692
9.1372282231027	0.61631630266423
9.1177754866180	0.61631141827628
9.0984054021244	0.61630674228311
9.0791174439733	0.61630227393493
9.0599110909640	0.61629801242321
9.0407858262967	0.61629395688176
9.0217411375263	0.61629010638786
9.0027765165165	0.61628645996329
8.9838914593947	0.61628301657546
8.9650854665072	0.61627977513844
8.9463580423754	0.61627673451407
8.9277086956522	0.61627389351302
8.9091369390788	0.61627125089583
8.8906422894425	0.61626880537401
8.8722242675348	0.61626655561109
8.8538823981099	0.61626450022366
8.8356162098438	0.61626263778240
8.8174252352941	0.61626096681320
8.7993090108600	0.61625948579812
8.7812670767428	0.61625819317645
8.7632989769073	0.61625708734578
8.7454042590432	0.61625616666298
8.7275824745269	0.61625542944523
8.7098331783847	0.61625487397107
8.6921559292549	0.61625449848137
8.6745502893519	0.61625430118035
8.6570158244297	0.61625428023661
8.6395521037464	0.61625443378408
8.6221587000288	0.61625475992304
8.6048351894374	0.61625525672110
8.5875811515325	0.61625592221417
8.5703961692396	0.61625675440746
8.5532798288160	0.61625775127640
8.5362317198178	0.61625891076765
8.5192514350668	0.61626023080004
8.5023385706183	0.61626170926551
8.4854927257288	0.61626334403005
8.4687135028249	0.61626513293467
8.4520005074711	0.61626707379628
8.4353533483399	0.61626916440868
8.4187716371806	0.61627140254342
8.4022549887892	0.61627378595073
8.3858030209790	0.61627631236044
8.3694153545505	0.61627897948285
8.3530916132627	0.61628178500967
8.3368314238042	0.61628472661485
8.3206344157646	0.61628780195548
8.3045002216066	0.61629100867267
8.2884284766381	0.61629434439240
8.2724188189845	0.61629780672640
8.2564708895621	0.61630139327295
8.2405843320506	0.61630510161778
8.2247587928669	0.61630892933488
8.2089939211391	0.61631287398730
8.1932893686800	0.61631693312802
8.1776447899618	0.61632110430073
8.1620598420909	0.61632538504065
8.1465341847826	0.61632977287532
8.1310674803363	0.61633426532537
8.1156593936113	0.61633885990536
8.1003095920022	0.61634355412449
8.0850177454153	0.61634834548740
8.0697835262450	0.61635323149492
8.0546066093498	0.61635820964483
8.0394866720300	0.61636327743259
8.0244233940043	0.61636843235209
8.0094164573871	0.61637367189633
7.9944655466667	0.61637899355823
7.9795703486825	0.61638439483124
7.9647305526036	0.61638987321010
7.9499458499072	0.61639542619154
7.9352159343568	0.61640105127492
7.9205405019815	0.61640674596295
7.9059192510549	0.61641250776234
7.8913518820742	0.61641833418445
7.8768380977404	0.61642422274597
7.8623776029373	0.61643017096955
7.8479701047120	0.61643617638443
7.8336153122550	0.61644223652707
7.8193129368805	0.61644834894177
7.8050626920073	0.61645451118128
7.7908642931393	0.61646072080740
7.7767174578470	0.61646697539157
7.7626219057483	0.61647327251546
7.7485773584906	0.61647960977154
7.7345835397317	0.61648598476364
7.7206401751223	0.61649239510753
7.7067469922879	0.61649883843144
7.6929037208109	0.61650531237663
7.6791100922131	0.61651181459789
7.6653658399386	0.61651834276409
7.6516706993364	0.61652489455868
7.6380244076433	0.61653146768018
7.6244267039674	0.61653805984273
7.6108773292714	0.61654466877651
7.5973760263558	0.61655129222827
7.5839225398432	0.61655792796176
7.5705166161616	0.61656457375822
7.5571580035291	0.61657122741683
7.5438464519376	0.61657788675514
7.5305817131374	0.61658454960952
7.5173635406219	0.61659121383554
7.5041916896120	0.61659787730847
7.4910659170415	0.61660453792360
7.4779859815415	0.61661119359671
7.4649516434263	0.61661784226440
7.4519626646781	0.61662448188453
7.4390188089330	0.61663111043653
7.4261198414664	0.61663772592181
7.4132655291790	0.61664432636412
7.4004556405826	0.61665090980983
7.3876899457861	0.61665747432835
7.3749682164822	0.61666401801241
7.3622902259332	0.61667053897839
7.3496557489581	0.61667703536661
7.3370645619187	0.61668350534168
7.3245164427071	0.61668994709274
7.3120111707317	0.61669635883380
7.2995485269053	0.61670273880396
7.2871282936315	0.61670908526769
7.2747502547925	0.61671539651514
7.2624141957364	0.61672167086230
7.2501199032648	0.61672790665131
7.2378671656205	0.61673410225069
7.2256557724753	0.61674025605551
7.2134855149182	0.61674636648767
7.2013561854432	0.61675243199604
7.1892675779376	0.61675845105673
7.1772194876706	0.61676442217323
7.1652117112811	0.61677034387659
7.1532440467669	0.61677621472562
7.1413162934731	0.61678203330704
7.1294282520809	0.61678779823564
7.1175797245964	0.61679350815441
7.1057705143399	0.61679916173470
7.0940004259347	0.61680475767635
7.0822692652965	0.61681029470780
7.0705768396226	0.61681577158622
7.0589229573817	0.61682118709758
7.0473074283028	0.61682654005682
7.0357300633654	0.61683182930787
7.0241906747891	0.61683705372375
7.0126890760234	0.61684221220666
7.0012250817375	0.61684730368807
6.9897985078107	0.61685232712870
6.9784091713222	0.61685728151865
6.9670568905415	0.61686216587741
6.9557414849188	0.61686697925388
6.9444627750753	0.61687172072643
6.9332205827937	0.61687638940290
6.9220147310090	0.61688098442062
6.9108450437990	0.61688550494642
6.8997113463751	0.61688995017660
6.8886134650735	0.61689431933695
6.8775512273457	0.61689861168274
6.8665244617499	0.61690282649866
6.8555329979419	0.61690696309879
6.8445766666667	0.61691102082663
6.8336552997493	0.61691499905495
6.8227687300865	0.61691889718582
6.8119167916383	0.61692271465051
6.8010993194192	0.61692645090943
6.7903161494904	0.61693010545207
6.7795671189507	0.61693367779689
6.7688520659291	0.61693716749126
6.7581708295762	0.61694057411136
6.7475232500563	0.61694389726209
6.7369091685393	0.61694713657692
6.7263284271932	0.61695029171782
6.7157808691756	0.61695336237514
6.7052663386267	0.61695634826746
6.6947846806610	0.61695924914145
6.6843357413601	0.61696206477179
6.6739193677649	0.61696479496094
6.6635354078684	0.61696743953907
6.6531837106081	0.61696999836386
6.6428641258586	0.61697247132032
6.6325765044248	0.61697485832069
6.6223206980340	0.61697715930418
6.6120965593295	0.61697937423687
6.6019039418630	0.61698150311147
6.5917427000879	0.61698354594714
6.5816126893524	0.61698550278932
6.5715137658922	0.61698737370951
6.5614457868243	0.61698915880504
6.5514086101399	0.61699085819890
6.5414020946978	0.61699247203950
6.5314261002179	0.61699400050046
6.5214804872743	0.61699544378037
6.5115651172893	0.61699680210255
6.5016798525266	0.61699807571486
6.4918245560849	0.61699926488938
6.4819990918919	0.61700036992226
6.4722033246978	0.61700139113339
6.4624371200690	0.61700232886616
6.4527003443823	0.61700318348726
6.4429928648184	0.61700395538634
6.4333145493562	0.61700464497577
6.4236652667667	0.61700525269039
6.4140448866068	0.61700577898722
6.4044532792138	0.61700622434516
6.3948903156997	0.61700658926472
6.3853558679446	0.61700687426776
6.3758498085921	0.61700707989716
6.3663720110427	0.61700720671654
6.3569223494487	0.61700725530996
6.3475006987084	0.61700722628162
6.3381069344609	0.61700712025557
6.3287409330800	0.61700693787538
6.3194025716695	0.61700667980382
6.3100917280572	0.61700634672258
6.3008082807902	0.61700593933194
6.2915521091291	0.61700545835043
6.2823230930427	0.61700490451452
6.2731211132036	0.61700427857831
6.2639460509820	0.61700358131319
6.2547977884415	0.61700281350747
6.2456762083333	0.61700197596613
6.2365811940919	0.61700106951042
6.2275126298297	0.61700009497753
6.2184704003319	0.61699905322027
6.2094543910522	0.61699794510672
6.2004644881075	0.61699677151986
6.1915005782734	0.61699553335730
6.1825625489792	0.61699423153081
6.1736502883031	0.61699286696610
6.1647636849681	0.61699144060237
6.1559026283368	0.61698995339202
6.1470670084068	0.61698840630025
6.1382567158067	0.61698680030474
6.1294716417910	0.61698513639527
6.1207116782360	0.61698341557338
6.1119767176351	0.61698163885200
6.1032666530945	0.61697980725507
6.0945813783289	0.61697792181722
6.0859207876573	0.61697598358338
6.0772847759984	0.61697399360844
6.0686732388664	0.61697195295683
6.0600860723671	0.61696986270224
6.0515231731934	0.61696772392718
6.0429844386212	0.61696553772267
6.0344697665056	0.61696330518782
6.0259790552764	0.61696102742953
6.0175122039342	0.61695870556207
6.0090691120465	0.61695634070672
6.0006496797438	0.61695393399143
5.9922538077154	0.61695148655046
5.9838813972056	0.61694899952395
5.9755323500100	0.61694647405764
5.9672065684713	0.61694391130243
5.9589039554760	0.61694131241408
5.9506244144502	0.61693867855278
5.9423678493558	0.61693601088286
5.9341341646873	0.61693331057235
5.9259232654675	0.61693057879267
5.9177350572444	0.61692781671827
5.9095694460871	0.61692502552621
5.9014263385827	0.61692220639588
5.8933056418321	0.61691936050859
5.8852072634472	0.61691648904723
5.8771311115468	0.61691359319589
5.8690770947533	0.61691067413955
5.8610451221896	0.61690773306368
5.8530351034752	0.61690477115393
5.8450469487229	0.61690178959574
5.8370805685358	0.61689878957400
5.8291358740035	0.61689577227274
5.8212127766990	0.61689273887471
5.8133111886756	0.61688969056113
5.8054310224632	0.61688662851125
5.7975721910656	0.61688355390209
5.7897346079567	0.61688046790805
5.7819181870781	0.61687737170061
5.7741228428351	0.61687426644795
5.7663484900942	0.61687115331468
5.7585950441798	0.61686803346145
5.7508624208709	0.61686490804467
5.7431505363985	0.61686177821613
5.7354593074421	0.61685864512276
5.7277886511272	0.61685550990622
5.7201384850219	0.61685237370264
5.7125087271341	0.61684923764230
5.7048992959087	0.61684610284930
5.6973101102242	0.61684297044125
5.6897410893908	0.61683984152898
5.6821921531463	0.61683671721623
5.6746632216544	0.61683359859937
5.6671542155009	0.61683048676703
5.6596650556919	0.61682738279992
5.6521956636501	0.61682428777042
5.6447459612126	0.61682120274240
5.6373158706281	0.61681812877084
5.6299053145540	0.61681506690162
5.6225142160540	0.61681201817121
5.6151424985952	0.61680898360641
5.6077900860456	0.61680596422404
5.6004569026714	0.61680296103073
5.5931428731343	0.61679997502263
5.5858479224893	0.61679700718513
5.5785719761816	0.61679405849264
5.5713149600446	0.61679112990831
5.5640768002970	0.61678822238378
5.5568574235403	0.61678533685898
5.5496567567568	0.61678247426182
5.5424747273063	0.61677963550800
5.5353112629247	0.61677682150076
5.5281662917204	0.61677403313066
5.5210397421731	0.61677127127535
5.5139315431304	0.61676853679933
5.5068416238060	0.61676583055377
5.4997699137773	0.61676315337627
5.4927163429828	0.61676050609066
5.4856808417200	0.61675788950678
5.4786633406433	0.61675530442033
5.4716637707611	0.61675275161260
5.4646820634342	0.61675023185033
5.4577181503732	0.61674774588552
5.4507719636364	0.61674529445521
5.4438434356274	0.61674287828137
5.4369324990932	0.61674049807064
5.4300390871219	0.61673815451423
5.4231631331404	0.61673584828773
5.4163045709124	0.61673358005094
5.4094633345363	0.61673135044773
5.4026393584430	0.61672916010590
5.3958325773938	0.61672700963698
5.3890429264785	0.61672489963617
5.3822703411131	0.61672283068211
5.3755147570378	0.61672080333686
5.3687761103152	0.61671881814564
5.3620543373278	0.61671687563683
5.3553493747767	0.61671497632177
5.3486611596789	0.61671312069470
5.3419896293656	0.61671130923260
5.3353347214807	0.61670954239513
5.3286963739780	0.61670782062451
5.3220745251198	0.61670614434545
5.3154691134752	0.61670451396501
5.3088800779175	0.61670292987258
5.3023073576229	0.61670139243976
5.2957508920685	0.61669990202030
5.2892106210303	0.61669845895001
5.2826864845815	0.61669706354673
5.2761784230905	0.61669571611026
5.2696863772192	0.61669441692228
5.2632102879213	0.61669316624634
5.2567500964405	0.61669196432779
5.2503057443082	0.61669081139374
5.2438771733427	0.61668970765303
5.2374643256464	0.61668865329623
5.2310671436050	0.61668764849556
5.2246855698850	0.61668669340491
5.2183195474326	0.61668578815983
5.2119690194715	0.61668493287747
5.2056339295016	0.61668412765666
5.1993142212973	0.61668337257782
5.1930098389052	0.61668266770304
5.1867207266436	0.61668201307602
5.1804468290997	0.61668140872218
5.1741880911288	0.61668085464857
5.1679444578521	0.61668035084397
5.1617158746556	0.61667989727893
5.1555022871883	0.61667949390572
5.1493036413604	0.61667914065847
5.1431198833419	0.61667883745316
5.1369509595613	0.61667858418767
5.1307968167037	0.61667838074185
5.1246574017094	0.61667822697759
5.1185326617722	0.61667812273886
5.1124225443383	0.61667806785179
5.1063269971044	0.61667806212474
5.1002459680163	0.61667810534840
5.0941794052676	0.61667819729584
5.0881272572980	0.61667833772262
5.0820894727920	0.61667852636690
5.0760660006773	0.61667876294948
5.0700567901235	0.61667904717398
5.0640617905405	0.61667937872689
5.0580809515775	0.61667975727770
5.0521142231210	0.61668018247901
5.0461615552937	0.61668065396667
5.0402228984533	0.61668117135991
5.0342982031906	0.61668173426142
5.0283874203287	0.61668234225755
5.0224905009214	0.61668299491840
5.0166073962517	0.61668369179800
5.0107380578305	0.61668443243444
5.0048824373957	0.61668521635001
4.9990404869101	0.61668604305138
4.9932121585610	0.61668691202977
4.9873974047579	0.61668782276109
4.9815961781323	0.61668877470609
4.9758084315353	0.61668976731062
4.9700341180371	0.61669080000570
4.9642731909256	0.61669187220778
4.9585256037049	0.61669298331891
4.9527913100942	0.61669413272690
4.9470702640264	0.61669531980554
4.9413624196473	0.61669654391481
4.9356677313138	0.61669780440105
4.9299861535932	0.61669910059720
4.9243176412615	0.61670043182299
4.9186621493027	0.61670179738514
4.9130196329072	0.61670319657762
4.9073900474709	0.61670462868184
4.9017733485939	0.61670609296688
4.8961694920790	0.61670758868972
4.8905784339315	0.61670911509548
4.8850001303569	0.61671067141765
4.8794345377604	0.61671225687831
4.8738816127459	0.61671387068841
4.8683413121143	0.61671551204799
4.8628135928629	0.61671718014645
4.8572984121841	0.61671887416277
4.8517957274640	0.61672059326579
4.8463054962819	0.61672233661446
4.8408276764088	0.61672410335812
4.8353622258065	0.61672589263673
