#Parameters = {thARC=0.2; nARC=1.25; thsub=1; p=1; nSub=4.25}
#"Wavelength / um"	"T (710) [Real Part]"
#---------------------------------------
14.989622900000	0.61823741555595
14.937342202292	0.61829103108807
14.885424925521	0.61834339752807
14.833867293419	0.61839453292384
14.782665581854	0.61844445523656
14.731816117936	0.61849318233920
14.681315279138	0.61854073201506
14.631159492435	0.61858712195643
14.581345233463	0.61863236976312
14.531869025691	0.61867649294114
14.482727439614	0.61871950890139
14.433917091960	0.61876143495834
14.385434644914	0.61880228832877
14.337276805356	0.61884208613051
14.289440324118	0.61888084538128
14.241921995249	0.61891858299744
14.194718655303	0.61895531579289
14.147827182633	0.61899106047794
14.101244496707	0.61902583365817
14.054967557431	0.61905965183343
14.008993364486	0.61909253139672
13.963318956684	0.61912448863326
13.917941411328	0.61915553971944
13.872857843591	0.61918570072191
13.828065405904	0.61921498759663
13.783561287356	0.61924341618797
13.739342713107	0.61927100222783
13.695406943810	0.61929776133481
13.651751275046	0.61932370901339
13.608373036768	0.61934886065312
13.565269592760	0.61937323152787
13.522438340099	0.61939683679510
13.479876708633	0.61941969149510
13.437582160466	0.61944181055036
13.395552189455	0.61946320876489
13.353784320713	0.61948390082356
13.312276110124	0.61950390129155
13.271025143869	0.61952322461368
13.230029037952	0.61954188511394
13.189285437747	0.61955989699490
13.148792017544	0.61957727433721
13.108546480105	0.61959403109914
13.068546556234	0.61961018111609
13.028790004346	0.61962573810018
12.989274610052	0.61964071563982
12.949998185745	0.61965512719934
12.910958570198	0.61966898611860
12.872153628167	0.61968230561267
12.833581250000	0.61969509877151
12.795239351259	0.61970737855968
12.757125872340	0.61971915781604
12.719238778108	0.61973044925353
12.681576057530	0.61974126545894
12.644135723323	0.61975161889268
12.606915811606	0.61976152188863
12.569914381551	0.61977098665395
12.533129515050	0.61978002526897
12.496559316382	0.61978864968701
12.460201911887	0.61979687173436
12.424055449648	0.61980470311014
12.388118099174	0.61981215538627
12.352388051092	0.61981924000744
12.316863516845	0.61982596829104
12.281542728390	0.61983235142725
12.246423937908	0.61983840047895
12.211505417515	0.61984412638188
12.176785458976	0.61984953994459
12.142262373431	0.61985465184859
12.107934491115	0.61985947264841
12.073800161095	0.61986401277173
12.039857751004	0.61986828251951
12.006105646776	0.61987229206613
11.972542252396	0.61987605145956
11.939165989646	0.61987957062155
11.905975297855	0.61988285934784
11.872968633663	0.61988592730834
11.840144470774	0.61988878404741
11.807501299724	0.61989143898410
11.775037627651	0.61989390141237
11.742751978065	0.61989618050146
11.710642890625	0.61989828529608
11.678708920919	0.61990022471684
11.646948640249	0.61990200756047
11.615360635413	0.61990364250024
11.583943508501	0.61990513808628
11.552695876686	0.61990650274595
11.521616372022	0.61990774478425
11.490703641242	0.61990887238422
11.459956345566	0.61990989360730
11.429373160503	0.61991081639383
11.398952775665	0.61991164856345
11.368693894577	0.61991239781555
11.338595234493	0.61991307172975
11.308655526217	0.61991367776637
11.278873513920	0.61991422326693
11.249247954972	0.61991471545464
11.219777619760	0.61991516143493
11.190461291527	0.61991556819595
11.161297766195	0.61991594260914
11.132285852209	0.61991629142974
11.103424370370	0.61991662129738
11.074712153676	0.61991693873665
11.046148047163	0.61991725015766
11.017730907755	0.61991756185664
10.989459604106	0.61991788001655
10.961333016453	0.61991821070767
10.933350036470	0.61991855988823
10.905509567115	0.61991893340507
10.877810522496	0.61991933699421
10.850251827723	0.61991977628157
10.822832418773	0.61992025678358
10.795551242348	0.61992078390786
10.768407255747	0.61992136295390
10.741399426729	0.61992199911373
10.714526733381	0.61992269747262
10.687788163993	0.61992346300976
10.661182716927	0.61992430059899
10.634709400497	0.61992521500950
10.608367232838	0.61992621090654
10.582155241793	0.61992729285217
10.556072464789	0.61992846530596
10.530117948718	0.61992973262578
10.504290749825	0.61993109906849
10.478589933590	0.61993256879073
10.453014574616	0.61993414584967
10.427563756522	0.61993583420377
10.402236571825	0.61993763771357
10.377032121841	0.61993956014243
10.351949516575	0.61994160515734
10.326987874612	0.61994377632971
10.302146323024	0.61994607713614
10.277423997257	0.61994851095922
10.252820041040	0.61995108108837
10.228333606278	0.61995379072057
10.203963852961	0.61995664296126
10.179709949066	0.61995964082509
10.155571070461	0.61996278723674
10.131546400811	0.61996608503180
10.107635131490	0.61996953695753
10.083836461487	0.61997314567371
10.060149597315	0.61997691375349
10.036573752929	0.61998084368423
10.013108149633	0.61998493786830
9.9897520159947	0.61998919862395
9.9665045877660	0.61999362818615
9.9433651077944	0.61999822870746
9.9203328259431	0.62000300225883
9.8974069990096	0.62000795083049
9.8745868906456	0.62001307633280
9.8518717712783	0.62001838059709
9.8292609180328	0.62002386537654
9.8067536146549	0.62002953234702
9.7843491514360	0.62003538310797
9.7620468251384	0.62004141918325
9.7398459389214	0.62004764202200
9.7177458022690	0.62005405299952
9.6957457309185	0.62006065341813
9.6738450467893	0.62006744450805
9.6520430779137	0.62007442742824
9.6303391583681	0.62008160326728
9.6087326282051	0.62008897304426
9.5872228333866	0.62009653770963
9.5658091257179	0.62010429814608
9.5444908627826	0.62011225516939
9.5232674078780	0.62012040952934
9.5021381299525	0.62012876191053
9.4811024035421	0.62013731293329
9.4601596087094	0.62014606315454
9.4393091309824	0.62015501306865
9.4185503612944	0.62016416310832
9.3978826959248	0.62017351364544
9.3773055364404	0.62018306499195
9.3568182896380	0.62019281740074
9.3364203674868	0.62020277106648
9.3161111870727	0.62021292612649
9.2958901705426	0.62022328266163
9.2757567450495	0.62023384069713
9.2557103426984	0.62024460020346
9.2357504004929	0.62025556109721
9.2158763602828	0.62026672324190
9.1960876687117	0.62027808644891
9.1763837771656	0.62028965047824
9.1567641417227	0.62030141503945
9.1372282231027	0.62031337979245
9.1177754866180	0.62032554434838
9.0984054021244	0.62033790827045
9.0791174439733	0.62035047107476
9.0599110909640	0.62036323223118
9.0407858262967	0.62037619116415
9.0217411375263	0.62038934725355
9.0027765165165	0.62040269983550
8.9838914593947	0.62041624820323
8.9650854665072	0.62042999160786
8.9463580423754	0.62044392925927
8.9277086956522	0.62045806032690
8.9091369390788	0.62047238394054
8.8906422894425	0.62048689919123
8.8722242675348	0.62050160513197
8.8538823981099	0.62051650077860
8.8356162098438	0.62053158511057
8.8174252352941	0.62054685707177
8.7993090108600	0.62056231557130
8.7812670767428	0.62057795948427
8.7632989769073	0.62059378765263
8.7454042590432	0.62060979888588
8.7275824745269	0.62062599196194
8.7098331783847	0.62064236562786
8.6921559292549	0.62065891860063
8.6745502893519	0.62067564956796
8.6570158244297	0.62069255718901
8.6395521037464	0.62070964009519
8.6221587000288	0.62072689689090
8.6048351894374	0.62074432615428
8.5875811515325	0.62076192643798
8.5703961692396	0.62077969626987
8.5532798288160	0.62079763415384
8.5362317198178	0.62081573857048
8.5192514350668	0.62083400797782
8.5023385706183	0.62085244081209
8.4854927257288	0.62087103548841
8.4687135028249	0.62088979040152
8.4520005074711	0.62090870392649
8.4353533483399	0.62092777441944
8.4187716371806	0.62094700021820
8.4022549887892	0.62096637964308
8.3858030209790	0.62098591099748
8.3694153545505	0.62100559256865
8.3530916132627	0.62102542262831
8.3368314238042	0.62104539943339
8.3206344157646	0.62106552122663
8.3045002216066	0.62108578623732
8.2884284766381	0.62110619268189
8.2724188189845	0.62112673876463
8.2564708895621	0.62114742267828
8.2405843320506	0.62116824260473
8.2247587928669	0.62118919671561
8.2089939211391	0.62121028317296
8.1932893686800	0.62123150012983
8.1776447899618	0.62125284573092
8.1620598420909	0.62127431811319
8.1465341847826	0.62129591540646
8.1310674803363	0.62131763573403
8.1156593936113	0.62133947721327
8.1003095920022	0.62136143795622
8.0850177454153	0.62138351607017
8.0697835262450	0.62140570965822
8.0546066093498	0.62142801681991
8.0394866720300	0.62145043565172
8.0244233940043	0.62147296424768
8.0094164573871	0.62149560069993
7.9944655466667	0.62151834309922
7.9795703486825	0.62154118953551
7.9647305526036	0.62156413809848
7.9499458499072	0.62158718687807
7.9352159343568	0.62161033396498
7.9205405019815	0.62163357745124
7.9059192510549	0.62165691543068
7.8913518820742	0.62168034599945
7.8768380977404	0.62170386725651
7.8623776029373	0.62172747730416
7.8479701047120	0.62175117424849
7.8336153122550	0.62177495619986
7.8193129368805	0.62179882127339
7.8050626920073	0.62182276758946
7.7908642931393	0.62184679327409
7.7767174578470	0.62187089645947
7.7626219057483	0.62189507528438
7.7485773584906	0.62191932789462
7.7345835397317	0.62194365244349
7.7206401751223	0.62196804709214
7.7067469922879	0.62199251001010
7.6929037208109	0.62201703937559
7.6791100922131	0.62204163337601
7.6653658399386	0.62206629020829
7.6516706993364	0.62209100807932
7.6380244076433	0.62211578520632
7.6244267039674	0.62214061981724
7.6108773292714	0.62216551015111
7.5973760263558	0.62219045445845
7.5839225398432	0.62221545100160
7.5705166161616	0.62224049805509
7.5571580035291	0.62226559390597
7.5438464519376	0.62229073685421
7.5305817131374	0.62231592521298
7.5173635406219	0.62234115730898
7.5041916896120	0.62236643148281
7.4910659170415	0.62239174608926
7.4779859815415	0.62241709949761
7.4649516434263	0.62244249009194
7.4519626646781	0.62246791627146
7.4390188089330	0.62249337645074
7.4261198414664	0.62251886906005
7.4132655291790	0.62254439254561
7.4004556405826	0.62256994536987
7.3876899457861	0.62259552601177
7.3749682164822	0.62262113296699
7.3622902259332	0.62264676474822
7.3496557489581	0.62267241988538
7.3370645619187	0.62269809692591
7.3245164427071	0.62272379443493
7.3120111707317	0.62274951099552
7.2995485269053	0.62277524520890
7.2871282936315	0.62280099569468
7.2747502547925	0.62282676109104
7.2624141957364	0.62285254005495
7.2501199032648	0.62287833126233
7.2378671656205	0.62290413340828
7.2256557724753	0.62292994520721
7.2134855149182	0.62295576539306
7.2013561854432	0.62298159271945
7.1892675779376	0.62300742595983
7.1772194876706	0.62303326390766
7.1652117112811	0.62305910537651
7.1532440467669	0.62308494920029
7.1413162934731	0.62311079423328
7.1294282520809	0.62313663935034
7.1175797245964	0.62316248344700
7.1057705143399	0.62318832543958
7.0940004259347	0.62321416426532
7.0822692652965	0.62323999888244
7.0705768396226	0.62326582827030
7.0589229573817	0.62329165142945
7.0473074283028	0.62331746738173
7.0357300633654	0.62334327517036
7.0241906747891	0.62336907385999
7.0126890760234	0.62339486253681
7.0012250817375	0.62342064030857
6.9897985078107	0.62344640630467
6.9784091713222	0.62347215967620
6.9670568905415	0.62349789959598
6.9557414849188	0.62352362525860
6.9444627750753	0.62354933588049
6.9332205827937	0.62357503069989
6.9220147310090	0.62360070897691
6.9108450437990	0.62362636999357
6.8997113463751	0.62365201305374
6.8886134650735	0.62367763748323
6.8775512273457	0.62370324262972
6.8665244617499	0.62372882786283
6.8555329979419	0.62375439257402
6.8445766666667	0.62377993617666
6.8336552997493	0.62380545810597
6.8227687300865	0.62383095781898
6.8119167916383	0.62385643479454
6.8010993194192	0.62388188853326
6.7903161494904	0.62390731855746
6.7795671189507	0.62393272441114
6.7688520659291	0.62395810565995
6.7581708295762	0.62398346189106
6.7475232500563	0.62400879271321
6.7369091685393	0.62403409775653
6.7263284271932	0.62405937667255
6.7157808691756	0.62408462913411
6.7052663386267	0.62410985483523
6.6947846806610	0.62413505349111
6.6843357413601	0.62416022483794
6.6739193677649	0.62418536863292
6.6635354078684	0.62421048465405
6.6531837106081	0.62423557270011
6.6428641258586	0.62426063259051
6.6325765044248	0.62428566416520
6.6223206980340	0.62431066728453
6.6120965593295	0.62433564182916
6.6019039418630	0.62436058769990
6.5917427000879	0.62438550481763
6.5816126893524	0.62441039312312
6.5715137658922	0.62443525257690
6.5614457868243	0.62446008315916
6.5514086101399	0.62448488486956
6.5414020946978	0.62450965772710
6.5314261002179	0.62453440176997
6.5214804872743	0.62455911705538
6.5115651172893	0.62458380365944
6.5016798525266	0.62460846167694
6.4918245560849	0.62463309122120
6.4819990918919	0.62465769242396
6.4722033246978	0.62468226543509
6.4624371200690	0.62470681042255
6.4527003443823	0.62473132757207
6.4429928648184	0.62475581708710
6.4333145493562	0.62478027918850
6.4236652667667	0.62480471411444
6.4140448866068	0.62482912212018
6.4044532792138	0.62485350347784
6.3948903156997	0.62487785847626
6.3853558679446	0.62490218742073
6.3758498085921	0.62492649063287
6.3663720110427	0.62495076845032
6.3569223494487	0.62497502122663
6.3475006987084	0.62499924933096
6.3381069344609	0.62502345314794
6.3287409330800	0.62504763307739
6.3194025716695	0.62507178953413
6.3100917280572	0.62509592294776
6.3008082807902	0.62512003376242
6.2915521091291	0.62514412243657
6.2823230930427	0.62516818944275
6.2731211132036	0.62519223526736
6.2639460509820	0.62521626041043
6.2547977884415	0.62524026538536
6.2456762083333	0.62526425071872
6.2365811940919	0.62528821694995
6.2275126298297	0.62531216463118
6.2184704003319	0.62533609432696
6.2094543910522	0.62536000661400
6.2004644881075	0.62538390208095
6.1915005782734	0.62540778132814
6.1825625489792	0.62543164496731
6.1736502883031	0.62545549362139
6.1647636849681	0.62547932792424
6.1559026283368	0.62550314852037
6.1470670084068	0.62552695606471
6.1382567158067	0.62555075122235
6.1294716417910	0.62557453466827
6.1207116782360	0.62559830708711
6.1119767176351	0.62562206917284
6.1032666530945	0.62564582162860
6.0945813783289	0.62566956516635
6.0859207876573	0.62569330050665
6.0772847759984	0.62571702837839
6.0686732388664	0.62574074951853
6.0600860723671	0.62576446467180
6.0515231731934	0.62578817459051
6.0429844386212	0.62581188003418
6.0344697665056	0.62583558176938
6.0259790552764	0.62585928056938
6.0175122039342	0.62588297721393
6.0090691120465	0.62590667248897
6.0006496797438	0.62593036718637
5.9922538077154	0.62595406210368
5.9838813972056	0.62597775804380
5.9755323500100	0.62600145581481
5.9672065684713	0.62602515622961
5.9589039554760	0.62604886010571
5.9506244144502	0.62607256826491
5.9423678493558	0.62609628153311
5.9341341646873	0.62612000073996
5.9259232654675	0.62614372671865
5.9177350572444	0.62616746030561
5.9095694460871	0.62619120234026
5.9014263385827	0.62621495366475
5.8933056418321	0.62623871512368
5.8852072634472	0.62626248756383
5.8771311115468	0.62628627183392
5.8690770947533	0.62631006878434
5.8610451221896	0.62633387926688
5.8530351034752	0.62635770413444
5.8450469487229	0.62638154424085
5.8370805685358	0.62640540044053
5.8291358740035	0.62642927358826
5.8212127766990	0.62645316453893
5.8133111886756	0.62647707414729
5.8054310224632	0.62650100326766
5.7975721910656	0.62652495275371
5.7897346079567	0.62654892345821
5.7819181870781	0.62657291623272
5.7741228428351	0.62659693192744
5.7663484900942	0.62662097139087
5.7585950441798	0.62664503546960
5.7508624208709	0.62666912500806
5.7431505363985	0.62669324084831
5.7354593074421	0.62671738382972
5.7277886511272	0.62674155478881
5.7201384850219	0.62676575455895
5.7125087271341	0.62678998397017
5.7048992959087	0.62681424384889
5.6973101102242	0.62683853501771
5.6897410893908	0.62686285829515
5.6821921531463	0.62688721449546
5.6746632216544	0.62691160442835
5.6671542155009	0.62693602889881
5.6596650556919	0.62696048870682
5.6521956636501	0.62698498464721
5.6447459612126	0.62700951750939
5.6373158706281	0.62703408807712
5.6299053145540	0.62705869712835
5.6225142160540	0.62708334543496
5.6151424985952	0.62710803376257
5.6077900860456	0.62713276287032
5.6004569026714	0.62715753351069
5.5931428731343	0.62718234642926
5.5858479224893	0.62720720236454
5.5785719761816	0.62723210204776
5.5713149600446	0.62725704620268
5.5640768002970	0.62728203554540
5.5568574235403	0.62730707078414
5.5496567567568	0.62733215261910
5.5424747273063	0.62735728174225
5.5353112629247	0.62738245883714
5.5281662917204	0.62740768457875
5.5210397421731	0.62743295963326
5.5139315431304	0.62745828465796
5.5068416238060	0.62748366030100
5.4997699137773	0.62750908720126
5.4927163429828	0.62753456598819
5.4856808417200	0.62756009728163
5.4786633406433	0.62758568169166
5.4716637707611	0.62761131981845
5.4646820634342	0.62763701225210
5.4577181503732	0.62766275957251
5.4507719636364	0.62768856234917
5.4438434356274	0.62771442114113
5.4369324990932	0.62774033649674
5.4300390871219	0.62776630895359
5.4231631331404	0.62779233903837
5.4163045709124	0.62781842726669
5.4094633345363	0.62784457414302
5.4026393584430	0.62787078016052
5.3958325773938	0.62789704580094
5.3890429264785	0.62792337153449
5.3822703411131	0.62794975781974
5.3755147570378	0.62797620510350
5.3687761103152	0.62800271382073
5.3620543373278	0.62802928439441
5.3553493747767	0.62805591723546
5.3486611596789	0.62808261274265
5.3419896293656	0.62810937130247
5.3353347214807	0.62813619328910
5.3286963739780	0.62816307906426
5.3220745251198	0.62819002897718
5.3154691134752	0.62821704336448
5.3088800779175	0.62824412255013
5.3023073576229	0.62827126684536
5.2957508920685	0.62829847654859
5.2892106210303	0.62832575194538
5.2826864845815	0.62835309330835
5.2761784230905	0.62838050089714
5.2696863772192	0.62840797495833
5.2632102879213	0.62843551572544
5.2567500964405	0.62846312341882
5.2503057443082	0.62849079824566
5.2438771733427	0.62851854039992
5.2374643256464	0.62854635006232
5.2310671436050	0.62857422740027
5.2246855698850	0.62860217256789
5.2183195474326	0.62863018570593
5.2119690194715	0.62865826694181
5.2056339295016	0.62868641638956
5.1993142212973	0.62871463414981
5.1930098389052	0.62874292030980
5.1867207266436	0.62877127494336
5.1804468290997	0.62879969811091
5.1741880911288	0.62882818985946
5.1679444578521	0.62885675022262
5.1617158746556	0.62888537922061
5.1555022871883	0.62891407686025
5.1493036413604	0.62894284313500
5.1431198833419	0.62897167802498
5.1369509595613	0.62900058149698
5.1307968167037	0.62902955350450
5.1246574017094	0.62905859398775
5.1185326617722	0.62908770287373
5.1124225443383	0.62911688007622
5.1063269971044	0.62914612549588
5.1002459680163	0.62917543902023
5.0941794052676	0.62920482052374
5.0881272572980	0.62923426986787
5.0820894727920	0.62926378690111
5.0760660006773	0.62929337145908
5.0700567901235	0.62932302336455
5.0640617905405	0.62935274242754
5.0580809515775	0.62938252844535
5.0521142231210	0.62941238120266
5.0461615552937	0.62944230047163
5.0402228984533	0.62947228601191
5.0342982031906	0.62950233757081
5.0283874203287	0.62953245488330
5.0224905009214	0.62956263767218
5.0166073962517	0.62959288564810
5.0107380578305	0.62962319850974
5.0048824373957	0.62965357594382
4.9990404869101	0.62968401762526
4.9932121585610	0.62971452321729
4.9873974047579	0.62974509237153
4.9815961781323	0.62977572472813
4.9758084315353	0.62980641991585
4.9700341180371	0.62983717755224
4.9642731909256	0.62986799724370
4.9585256037049	0.62989887858564
4.9527913100942	0.62992982116261
4.9470702640264	0.62996082454842
4.9413624196473	0.62999188830629
4.9356677313138	0.63002301198896
4.9299861535932	0.63005419513888
4.9243176412615	0.63008543728829
4.9186621493027	0.63011673795945
4.9130196329072	0.63014809666469
4.9073900474709	0.63017951290666
4.9017733485939	0.63021098617842
4.8961694920790	0.63024251596363
4.8905784339315	0.63027410173670
4.8850001303569	0.63030574296295
4.8794345377604	0.63033743909882
4.8738816127459	0.63036918959195
4.8683413121143	0.63040099388146
4.8628135928629	0.63043285139804
4.8572984121841	0.63046476156416
4.8517957274640	0.63049672379428
4.8463054962819	0.63052873749497
4.8408276764088	0.63056080206515
4.8353622258065	0.63059291689623
