#Parameters = {thARC=0; nARC=2; thsub=1; p=1; nSub=4.25}
#"Wavelength / um"	"T (727) [Real Part]"
#---------------------------------------
14.989622900000	0.61677983149955
14.937342202292	0.61681435237500
14.885424925521	0.61684786464144
14.833867293419	0.61688038262630
14.782665581854	0.61691192057637
14.731816117936	0.61694249265689
14.681315279138	0.61697211295073
14.631159492435	0.61700079545758
14.581345233463	0.61702855409316
14.531869025691	0.61705540268843
14.482727439614	0.61708135498885
14.433917091960	0.61710642465363
14.385434644914	0.61713062525501
14.337276805356	0.61715397027761
14.289440324118	0.61717647311770
14.241921995249	0.61719814708257
14.194718655303	0.61721900538992
14.147827182633	0.61723906116717
14.101244496707	0.61725832745097
14.054967557431	0.61727681718653
14.008993364486	0.61729454322709
13.963318956684	0.61731151833342
13.917941411328	0.61732775517323
13.872857843591	0.61734326632076
13.828065405904	0.61735806425619
13.783561287356	0.61737216136527
13.739342713107	0.61738556993882
13.695406943810	0.61739830217234
13.651751275046	0.61741037016554
13.608373036768	0.61742178592203
13.565269592760	0.61743256134889
13.522438340099	0.61744270825633
13.479876708633	0.61745223835736
13.437582160466	0.61746116326745
13.395552189455	0.61746949450426
13.353784320713	0.61747724348732
13.312276110124	0.61748442153778
13.271025143869	0.61749103987814
13.230029037952	0.61749710963204
13.189285437747	0.61750264182403
13.148792017544	0.61750764737935
13.108546480105	0.61751213712378
13.068546556234	0.61751612178342
13.028790004346	0.61751961198458
12.989274610052	0.61752261825362
12.949998185745	0.61752515101683
12.910958570198	0.61752722060033
12.872153628167	0.61752883722995
12.833581250000	0.61753001103119
12.795239351259	0.61753075202912
12.757125872340	0.61753107014837
12.719238778108	0.61753097521306
12.681576057530	0.61753047694680
12.644135723323	0.61752958497269
12.606915811606	0.61752830881330
12.569914381551	0.61752665789074
12.533129515050	0.61752464152665
12.496559316382	0.61752226894228
12.460201911887	0.61751954925854
12.424055449648	0.61751649149607
12.388118099174	0.61751310457535
12.352388051092	0.61750939731680
12.316863516845	0.61750537844087
12.281542728390	0.61750105656819
12.246423937908	0.61749644021972
12.211505417515	0.61749153781686
12.176785458976	0.61748635768167
12.142262373431	0.61748090803699
12.107934491115	0.61747519700670
12.073800161095	0.61746923261583
12.039857751004	0.61746302279085
12.006105646776	0.61745657535983
11.972542252396	0.61744989805273
11.939165989646	0.61744299850159
11.905975297855	0.61743588424085
11.872968633663	0.61742856270753
11.840144470774	0.61742104124159
11.807501299724	0.61741332708616
11.775037627651	0.61740542738785
11.742751978065	0.61739734919708
11.710642890625	0.61738909946835
11.678708920919	0.61738068506060
11.646948640249	0.61737211273756
11.615360635413	0.61736338916803
11.583943508501	0.61735452092630
11.552695876686	0.61734551449247
11.521616372022	0.61733637625284
11.490703641242	0.61732711250027
11.459956345566	0.61731772943461
11.429373160503	0.61730823316305
11.398952775665	0.61729862970053
11.368693894577	0.61728892497018
11.338595234493	0.61727912480372
11.308655526217	0.61726923494189
11.278873513920	0.61725926103489
11.249247954972	0.61724920864281
11.219777619760	0.61723908323609
11.190461291527	0.61722889019599
11.161297766195	0.61721863481502
11.132285852209	0.61720832229745
11.103424370370	0.61719795775974
11.074712153676	0.61718754623108
11.046148047163	0.61717709265383
11.017730907755	0.61716660188406
10.989459604106	0.61715607869200
10.961333016453	0.61714552776260
10.933350036470	0.61713495369602
10.905509567115	0.61712436100815
10.877810522496	0.61711375413114
10.850251827723	0.61710313741392
10.822832418773	0.61709251512277
10.795551242348	0.61708189144179
10.768407255747	0.61707127047354
10.741399426729	0.61706065623951
10.714526733381	0.61705005268073
10.687788163993	0.61703946365829
10.661182716927	0.61702889295394
10.634709400497	0.61701834427063
10.608367232838	0.61700782123310
10.582155241793	0.61699732738846
10.556072464789	0.61698686620675
10.530117948718	0.61697644108155
10.504290749825	0.61696605533055
10.478589933590	0.61695571219617
10.453014574616	0.61694541484610
10.427563756522	0.61693516637398
10.402236571825	0.61692496979991
10.377032121841	0.61691482807115
10.351949516575	0.61690474406265
10.326987874612	0.61689472057769
10.302146323024	0.61688476034853
10.277423997257	0.61687486603696
10.252820041040	0.61686504023497
10.228333606278	0.61685528546535
10.203963852961	0.61684560418232
10.179709949066	0.61683599877216
10.155571070461	0.61682647155382
10.131546400811	0.61681702477957
10.107635131490	0.61680766063564
10.083836461487	0.61679838124281
10.060149597315	0.61678918865711
10.036573752929	0.61678008487039
10.013108149633	0.61677107181101
9.9897520159947	0.61676215134446
9.9665045877660	0.61675332527399
9.9433651077944	0.61674459534129
9.9203328259431	0.61673596322709
9.8974069990096	0.61672743055182
9.8745868906456	0.61671899887626
9.8518717712783	0.61671066970219
9.8292609180328	0.61670244447304
9.8067536146549	0.61669432457451
9.7843491514360	0.61668631133525
9.7620468251384	0.61667840602749
9.7398459389214	0.61667060986770
9.7177458022690	0.61666292401721
9.6957457309185	0.61665534958293
9.6738450467893	0.61664788761789
9.6520430779137	0.61664053912200
9.6303391583681	0.61663330504263
9.6087326282051	0.61662618627528
9.5872228333866	0.61661918366422
9.5658091257179	0.61661229800315
9.5444908627826	0.61660553003586
9.5232674078780	0.61659888045683
9.5021381299525	0.61659234991193
9.4811024035421	0.61658593899903
9.4601596087094	0.61657964826866
9.4393091309824	0.61657347822467
9.4185503612944	0.61656742932484
9.3978826959248	0.61656150198153
9.3773055364404	0.61655569656235
9.3568182896380	0.61655001339078
9.3364203674868	0.61654445274679
9.3161111870727	0.61653901486751
9.2958901705426	0.61653369994788
9.2757567450495	0.61652850814121
9.2557103426984	0.61652343955991
9.2357504004929	0.61651849427605
9.2158763602828	0.61651367232202
9.1960876687117	0.61650897369116
9.1763837771656	0.61650439833838
9.1567641417227	0.61649994618080
9.1372282231027	0.61649561709834
9.1177754866180	0.61649141093438
9.0984054021244	0.61648732749637
9.0791174439733	0.61648336655642
9.0599110909640	0.61647952785194
9.0407858262967	0.61647581108626
9.0217411375263	0.61647221592924
9.0027765165165	0.61646874201784
8.9838914593947	0.61646538895677
8.9650854665072	0.61646215631910
8.9463580423754	0.61645904364681
8.9277086956522	0.61645605045144
8.9091369390788	0.61645317621466
8.8906422894425	0.61645042038888
8.8722242675348	0.61644778239782
8.8538823981099	0.61644526163712
8.8356162098438	0.61644285747492
8.8174252352941	0.61644056925243
8.7993090108600	0.61643839628453
8.7812670767428	0.61643633786033
8.7632989769073	0.61643439324377
8.7454042590432	0.61643256167414
8.7275824745269	0.61643084236671
8.7098331783847	0.61642923451325
8.6921559292549	0.61642773728262
8.6745502893519	0.61642634982132
8.6570158244297	0.61642507125402
8.6395521037464	0.61642390068416
8.6221587000288	0.61642283719447
8.6048351894374	0.61642187984750
8.5875811515325	0.61642102768621
8.5703961692396	0.61642027973445
8.5532798288160	0.61641963499755
8.5362317198178	0.61641909246283
8.5192514350668	0.61641865110010
8.5023385706183	0.61641830986223
8.4854927257288	0.61641806768566
8.4687135028249	0.61641792349088
8.4520005074711	0.61641787618300
8.4353533483399	0.61641792465222
8.4187716371806	0.61641806777434
8.4022549887892	0.61641830441130
8.3858030209790	0.61641863341161
8.3694153545505	0.61641905361092
8.3530916132627	0.61641956383245
8.3368314238042	0.61642016288751
8.3206344157646	0.61642084957598
8.3045002216066	0.61642162268678
8.2884284766381	0.61642248099835
8.2724188189845	0.61642342327911
8.2564708895621	0.61642444828794
8.2405843320506	0.61642555477465
8.2247587928669	0.61642674148042
8.2089939211391	0.61642800713825
8.1932893686800	0.61642935047344
8.1776447899618	0.61643077020400
8.1620598420909	0.61643226504114
8.1465341847826	0.61643383368964
8.1310674803363	0.61643547484835
8.1156593936113	0.61643718721057
8.1003095920022	0.61643896946451
8.0850177454153	0.61644082029369
8.0697835262450	0.61644273837736
8.0546066093498	0.61644472239091
8.0394866720300	0.61644677100629
8.0244233940043	0.61644888289239
8.0094164573871	0.61645105671547
7.9944655466667	0.61645329113952
7.9795703486825	0.61645558482667
7.9647305526036	0.61645793643759
7.9499458499072	0.61646034463181
7.9352159343568	0.61646280806819
7.9205405019815	0.61646532540520
7.9059192510549	0.61646789530134
7.8913518820742	0.61647051641550
7.8768380977404	0.61647318740729
7.8623776029373	0.61647590693743
7.8479701047120	0.61647867366808
7.8336153122550	0.61648148626316
7.8193129368805	0.61648434338874
7.8050626920073	0.61648724371336
7.7908642931393	0.61649018590832
7.7767174578470	0.61649316864807
7.7626219057483	0.61649619061046
7.7485773584906	0.61649925047715
7.7345835397317	0.61650234693381
7.7206401751223	0.61650547867054
7.7067469922879	0.61650864438208
7.6929037208109	0.61651184276817
7.6791100922131	0.61651507253381
7.6653658399386	0.61651833238956
7.6516706993364	0.61652162105185
7.6380244076433	0.61652493724319
7.6244267039674	0.61652827969253
7.6108773292714	0.61653164713547
7.5973760263558	0.61653503831457
7.5839225398432	0.61653845197955
7.5705166161616	0.61654188688762
7.5571580035291	0.61654534180368
7.5438464519376	0.61654881550058
7.5305817131374	0.61655230675939
7.5173635406219	0.61655581436959
7.5041916896120	0.61655933712934
7.4910659170415	0.61656287384570
7.4779859815415	0.61656642333484
7.4649516434263	0.61656998442228
7.4519626646781	0.61657355594310
7.4390188089330	0.61657713674213
7.4261198414664	0.61658072567419
7.4132655291790	0.61658432160427
7.4004556405826	0.61658792340772
7.3876899457861	0.61659152997047
7.3749682164822	0.61659514018919
7.3622902259332	0.61659875297147
7.3496557489581	0.61660236723604
7.3370645619187	0.61660598191289
7.3245164427071	0.61660959594348
7.3120111707317	0.61661320828088
7.2995485269053	0.61661681788995
7.2871282936315	0.61662042374748
7.2747502547925	0.61662402484234
7.2624141957364	0.61662762017565
7.2501199032648	0.61663120876090
7.2378671656205	0.61663478962410
7.2256557724753	0.61663836180390
7.2134855149182	0.61664192435173
7.2013561854432	0.61664547633194
7.1892675779376	0.61664901682188
7.1772194876706	0.61665254491205
7.1652117112811	0.61665605970622
7.1532440467669	0.61665956032149
7.1413162934731	0.61666304588846
7.1294282520809	0.61666651555125
7.1175797245964	0.61666996846768
7.1057705143399	0.61667340380930
7.0940004259347	0.61667682076148
7.0822692652965	0.61668021852353
7.0705768396226	0.61668359630876
7.0589229573817	0.61668695334452
7.0473074283028	0.61669028887235
7.0357300633654	0.61669360214794
7.0241906747891	0.61669689244128
7.0126890760234	0.61670015903668
7.0012250817375	0.61670340123284
6.9897985078107	0.61670661834286
6.9784091713222	0.61670980969435
6.9670568905415	0.61671297462941
6.9557414849188	0.61671611250471
6.9444627750753	0.61671922269151
6.9332205827937	0.61672230457566
6.9220147310090	0.61672535755771
6.9108450437990	0.61672838105283
6.8997113463751	0.61673137449090
6.8886134650735	0.61673433731649
6.8775512273457	0.61673726898890
6.8665244617499	0.61674016898214
6.8555329979419	0.61674303678495
6.8445766666667	0.61674587190078
6.8336552997493	0.61674867384782
6.8227687300865	0.61675144215898
6.8119167916383	0.61675417638187
6.8010993194192	0.61675687607877
6.7903161494904	0.61675954082666
6.7795671189507	0.61676217021718
6.7688520659291	0.61676476385657
6.7581708295762	0.61676732136569
6.7475232500563	0.61676984237997
6.7369091685393	0.61677232654938
6.7263284271932	0.61677477353838
6.7157808691756	0.61677718302590
6.7052663386267	0.61677955470528
6.6947846806610	0.61678188828422
6.6843357413601	0.61678418348476
6.6739193677649	0.61678644004317
6.6635354078684	0.61678865770997
6.6531837106081	0.61679083624979
6.6428641258586	0.61679297544137
6.6325765044248	0.61679507507746
6.6223206980340	0.61679713496478
6.6120965593295	0.61679915492391
6.6019039418630	0.61680113478925
6.5917427000879	0.61680307440893
6.5816126893524	0.61680497364473
6.5715137658922	0.61680683237199
6.5614457868243	0.61680865047956
6.5514086101399	0.61681042786965
6.5414020946978	0.61681216445781
6.5314261002179	0.61681386017278
6.5214804872743	0.61681551495644
6.5115651172893	0.61681712876367
6.5016798525266	0.61681870156227
6.4918245560849	0.61682023333287
6.4819990918919	0.61682172406880
6.4722033246978	0.61682317377601
6.4624371200690	0.61682458247293
6.4527003443823	0.61682595019038
6.4429928648184	0.61682727697143
6.4333145493562	0.61682856287133
6.4236652667667	0.61682980795734
6.4140448866068	0.61683101230863
6.4044532792138	0.61683217601620
6.3948903156997	0.61683329918265
6.3853558679446	0.61683438192217
6.3758498085921	0.61683542436033
6.3663720110427	0.61683642663399
6.3569223494487	0.61683738889115
6.3475006987084	0.61683831129083
6.3381069344609	0.61683919400291
6.3287409330800	0.61684003720801
6.3194025716695	0.61684084109737
6.3100917280572	0.61684160587265
6.3008082807902	0.61684233174584
6.2915521091291	0.61684301893912
6.2823230930427	0.61684366768465
6.2731211132036	0.61684427822449
6.2639460509820	0.61684485081043
6.2547977884415	0.61684538570384
6.2456762083333	0.61684588317548
6.2365811940919	0.61684634350542
6.2275126298297	0.61684676698283
6.2184704003319	0.61684715390585
6.2094543910522	0.61684750458141
6.2004644881075	0.61684781932509
6.1915005782734	0.61684809846098
6.1825625489792	0.61684834232147
6.1736502883031	0.61684855124714
6.1647636849681	0.61684872558655
6.1559026283368	0.61684886569612
6.1470670084068	0.61684897193994
6.1382567158067	0.61684904468962
6.1294716417910	0.61684908432411
6.1207116782360	0.61684909122955
6.1119767176351	0.61684906579908
6.1032666530945	0.61684900843270
6.0945813783289	0.61684891953708
6.0859207876573	0.61684879952540
6.0772847759984	0.61684864881718
6.0686732388664	0.61684846783810
6.0600860723671	0.61684825701985
6.0515231731934	0.61684801679995
6.0429844386212	0.61684774762154
6.0344697665056	0.61684744993330
6.0259790552764	0.61684712418917
6.0175122039342	0.61684677084825
6.0090691120465	0.61684639037460
6.0006496797438	0.61684598323709
5.9922538077154	0.61684554990918
5.9838813972056	0.61684509086880
5.9755323500100	0.61684460659813
5.9672065684713	0.61684409758346
5.9589039554760	0.61684356431501
5.9506244144502	0.61684300728675
5.9423678493558	0.61684242699621
5.9341341646873	0.61684182394434
5.9259232654675	0.61684119863533
5.9177350572444	0.61684055157641
5.9095694460871	0.61683988327771
5.9014263385827	0.61683919425205
5.8933056418321	0.61683848501481
5.8852072634472	0.61683775608374
5.8771311115468	0.61683700797877
5.8690770947533	0.61683624122187
5.8610451221896	0.61683545633686
5.8530351034752	0.61683465384925
5.8450469487229	0.61683383428604
5.8370805685358	0.61683299817561
5.8291358740035	0.61683214604749
5.8212127766990	0.61683127843222
5.8133111886756	0.61683039586120
5.8054310224632	0.61682949886648
5.7975721910656	0.61682858798064
5.7897346079567	0.61682766373658
5.7819181870781	0.61682672666739
5.7741228428351	0.61682577730617
5.7663484900942	0.61682481618589
5.7585950441798	0.61682384383916
5.7508624208709	0.61682286079818
5.7431505363985	0.61682186759447
5.7354593074421	0.61682086475879
5.7277886511272	0.61681985282092
5.7201384850219	0.61681883230956
5.7125087271341	0.61681780375213
5.7048992959087	0.61681676767464
5.6973101102242	0.61681572460153
5.6897410893908	0.61681467505551
5.6821921531463	0.61681361955742
5.6746632216544	0.61681255862607
5.6671542155009	0.61681149277809
5.6596650556919	0.61681042252780
5.6521956636501	0.61680934838705
5.6447459612126	0.61680827086505
5.6373158706281	0.61680719046829
5.6299053145540	0.61680610770033
5.6225142160540	0.61680502306171
5.6151424985952	0.61680393704978
5.6077900860456	0.61680285015857
5.6004569026714	0.61680176287865
5.5931428731343	0.61680067569702
5.5858479224893	0.61679958909694
5.5785719761816	0.61679850355781
5.5713149600446	0.61679741955506
5.5640768002970	0.61679633756001
5.5568574235403	0.61679525803972
5.5496567567568	0.61679418145690
5.5424747273063	0.61679310826976
5.5353112629247	0.61679203893191
5.5281662917204	0.61679097389221
5.5210397421731	0.61678991359469
5.5139315431304	0.61678885847841
5.5068416238060	0.61678780897734
5.4997699137773	0.61678676552026
5.4927163429828	0.61678572853065
5.4856808417200	0.61678469842657
5.4786633406433	0.61678367562056
5.4716637707611	0.61678266051954
5.4646820634342	0.61678165352469
5.4577181503732	0.61678065503136
5.4507719636364	0.61677966542897
5.4438434356274	0.61677868510092
5.4369324990932	0.61677771442446
5.4300390871219	0.61677675377064
5.4231631331404	0.61677580350420
5.4163045709124	0.61677486398349
5.4094633345363	0.61677393556035
5.4026393584430	0.61677301858005
5.3958325773938	0.61677211338123
5.3890429264785	0.61677122029576
5.3822703411131	0.61677033964871
5.3755147570378	0.61676947175827
5.3687761103152	0.61676861693564
5.3620543373278	0.61676777548498
5.3553493747767	0.61676694770336
5.3486611596789	0.61676613388064
5.3419896293656	0.61676533429947
5.3353347214807	0.61676454923515
5.3286963739780	0.61676377895564
5.3220745251198	0.61676302372146
5.3154691134752	0.61676228378564
5.3088800779175	0.61676155939366
5.3023073576229	0.61676085078341
5.2957508920685	0.61676015818513
5.2892106210303	0.61675948182138
5.2826864845815	0.61675882190695
5.2761784230905	0.61675817864888
5.2696863772192	0.61675755224635
5.2632102879213	0.61675694289069
5.2567500964405	0.61675635076532
5.2503057443082	0.61675577604574
5.2438771733427	0.61675521889947
5.2374643256464	0.61675467948602
5.2310671436050	0.61675415795687
5.2246855698850	0.61675365445548
5.2183195474326	0.61675316911720
5.2119690194715	0.61675270206929
5.2056339295016	0.61675225343091
5.1993142212973	0.61675182331307
5.1930098389052	0.61675141181864
5.1867207266436	0.61675101904233
5.1804468290997	0.61675064507071
5.1741880911288	0.61675028998213
5.1679444578521	0.61674995384680
5.1617158746556	0.61674963672674
5.1555022871883	0.61674933867579
5.1493036413604	0.61674905973960
5.1431198833419	0.61674879995566
5.1369509595613	0.61674855935329
5.1307968167037	0.61674833795366
5.1246574017094	0.61674813576979
5.1185326617722	0.61674795280657
5.1124225443383	0.61674778906077
5.1063269971044	0.61674764452106
5.1002459680163	0.61674751916806
5.0941794052676	0.61674741297431
5.0881272572980	0.61674732590432
5.0820894727920	0.61674725791462
5.0760660006773	0.61674720895377
5.0700567901235	0.61674717896236
5.0640617905405	0.61674716787313
5.0580809515775	0.61674717561089
5.0521142231210	0.61674720209267
5.0461615552937	0.61674724722768
5.0402228984533	0.61674731091742
5.0342982031906	0.61674739305565
5.0283874203287	0.61674749352851
5.0224905009214	0.61674761221452
5.0166073962517	0.61674774898465
5.0107380578305	0.61674790370239
5.0048824373957	0.61674807622375
4.9990404869101	0.61674826639741
4.9932121585610	0.61674847406469
4.9873974047579	0.61674869905966
4.9815961781323	0.61674894120919
4.9758084315353	0.61674920033303
4.9700341180371	0.61674947624386
4.9642731909256	0.61674976874738
4.9585256037049	0.61675007764236
4.9527913100942	0.61675040272073
4.9470702640264	0.61675074376766
4.9413624196473	0.61675110056161
4.9356677313138	0.61675147287447
4.9299861535932	0.61675186047157
4.9243176412615	0.61675226311180
4.9186621493027	0.61675268054772
4.9130196329072	0.61675311252560
4.9073900474709	0.61675355878553
4.9017733485939	0.61675401906154
4.8961694920790	0.61675449308162
4.8905784339315	0.61675498056792
4.8850001303569	0.61675548123673
4.8794345377604	0.61675599479869
4.8738816127459	0.61675652095881
4.8683413121143	0.61675705941660
4.8628135928629	0.61675760986618
4.8572984121841	0.61675817199638
4.8517957274640	0.61675874549084
4.8463054962819	0.61675933002814
4.8408276764088	0.61675992528189
4.8353622258065	0.61676053092082
