#Parameters = {thARC=0.2; nARC=1.75; thsub=1; p=1; nSub=4.25}
#"Wavelength / um"	"T (722) [Real Part]"
#---------------------------------------
14.989622900000	0.62164859054142
14.937342202292	0.62172846755879
14.885424925521	0.62180711378563
14.833867293419	0.62188454795049
14.782665581854	0.62196078869950
14.731816117936	0.62203585459469
14.681315279138	0.62210976411240
14.631159492435	0.62218253564163
14.581345233463	0.62225418748253
14.531869025691	0.62232473784478
14.482727439614	0.62239420484618
14.433917091960	0.62246260651107
14.385434644914	0.62252996076897
14.337276805356	0.62259628545309
14.289440324118	0.62266159829900
14.241921995249	0.62272591694323
14.194718655303	0.62278925892196
14.147827182633	0.62285164166973
14.101244496707	0.62291308251816
14.054967557431	0.62297359869472
14.008993364486	0.62303320732149
13.963318956684	0.62309192541406
13.917941411328	0.62314976988027
13.872857843591	0.62320675751920
13.828065405904	0.62326290502001
13.783561287356	0.62331822896089
13.739342713107	0.62337274580806
13.695406943810	0.62342647191472
13.651751275046	0.62347942352010
13.608373036768	0.62353161674854
13.565269592760	0.62358306760853
13.522438340099	0.62363379199182
13.479876708633	0.62368380567261
13.437582160466	0.62373312430666
13.395552189455	0.62378176343051
13.353784320713	0.62382973846072
13.312276110124	0.62387706469307
13.271025143869	0.62392375730191
13.230029037952	0.62396983133938
13.189285437747	0.62401530173482
13.148792017544	0.62406018329407
13.108546480105	0.62410449069889
13.068546556234	0.62414823850634
13.028790004346	0.62419144114827
12.989274610052	0.62423411293071
12.949998185745	0.62427626803342
12.910958570198	0.62431792050937
12.872153628167	0.62435908428430
12.833581250000	0.62439977315626
12.795239351259	0.62444000079523
12.757125872340	0.62447978074271
12.719238778108	0.62451912641136
12.681576057530	0.62455805108467
12.644135723323	0.62459656791666
12.606915811606	0.62463468993155
12.569914381551	0.62467243002354
12.533129515050	0.62470980095652
12.496559316382	0.62474681536390
12.460201911887	0.62478348574835
12.424055449648	0.62481982448170
12.388118099174	0.62485584380473
12.352388051092	0.62489155582704
12.316863516845	0.62492697252700
12.281542728390	0.62496210575156
12.246423937908	0.62499696721630
12.211505417515	0.62503156850528
12.176785458976	0.62506592107111
12.142262373431	0.62510003623486
12.107934491115	0.62513392518614
12.073800161095	0.62516759898309
12.039857751004	0.62520106855248
12.006105646776	0.62523434468974
11.972542252396	0.62526743805910
11.939165989646	0.62530035919366
11.905975297855	0.62533311849555
11.872968633663	0.62536572623610
11.840144470774	0.62539819255595
11.807501299724	0.62543052746529
11.775037627651	0.62546274084404
11.742751978065	0.62549484244209
11.710642890625	0.62552684187952
11.678708920919	0.62555874864688
11.646948640249	0.62559057210543
11.615360635413	0.62562232148747
11.583943508501	0.62565400589663
11.552695876686	0.62568563430817
11.521616372022	0.62571721556936
11.490703641242	0.62574875839980
11.459956345566	0.62578027139182
11.429373160503	0.62581176301082
11.398952775665	0.62584324159573
11.368693894577	0.62587471535935
11.338595234493	0.62590619238886
11.308655526217	0.62593768064618
11.278873513920	0.62596918796850
11.249247954972	0.62600072206870
11.219777619760	0.62603229053584
11.190461291527	0.62606390083568
11.161297766195	0.62609556031116
11.132285852209	0.62612727618295
11.103424370370	0.62615905554996
11.074712153676	0.62619090538988
11.046148047163	0.62622283255979
11.017730907755	0.62625484379665
10.989459604106	0.62628694571796
10.961333016453	0.62631914482230
10.933350036470	0.62635144748994
10.905509567115	0.62638385998350
10.877810522496	0.62641638844849
10.850251827723	0.62644903891404
10.822832418773	0.62648181729348
10.795551242348	0.62651472938502
10.768407255747	0.62654778087240
10.741399426729	0.62658097732560
10.714526733381	0.62661432420148
10.687788163993	0.62664782684450
10.661182716927	0.62668149048742
10.634709400497	0.62671532025199
10.608367232838	0.62674932114972
10.582155241793	0.62678349808252
10.556072464789	0.62681785584353
10.530117948718	0.62685239911780
10.504290749825	0.62688713248308
10.478589933590	0.62692206041053
10.453014574616	0.62695718726554
10.427563756522	0.62699251730847
10.402236571825	0.62702805469543
10.377032121841	0.62706380347908
10.351949516575	0.62709976760941
10.326987874612	0.62713595093456
10.302146323024	0.62717235720158
10.277423997257	0.62720899005730
10.252820041040	0.62724585304908
10.228333606278	0.62728294962571
10.203963852961	0.62732028313816
10.179709949066	0.62735785684046
10.155571070461	0.62739567389053
10.131546400811	0.62743373735101
10.107635131490	0.62747205019011
10.083836461487	0.62751061528248
10.060149597315	0.62754943541003
10.036573752929	0.62758851326283
10.013108149633	0.62762785143994
9.9897520159947	0.62766745245029
9.9665045877660	0.62770731871358
9.9433651077944	0.62774745256108
9.9203328259431	0.62778785623661
9.8974069990096	0.62782853189731
9.8745868906456	0.62786948161463
9.8518717712783	0.62791070737513
9.8292609180328	0.62795221108144
9.8067536146549	0.62799399455307
9.7843491514360	0.62803605952741
9.7620468251384	0.62807840766053
9.7398459389214	0.62812104052813
9.7177458022690	0.62816395962642
9.6957457309185	0.62820716637305
9.6738450467893	0.62825066210799
9.6520430779137	0.62829444809442
9.6303391583681	0.62833852551967
9.6087326282051	0.62838289549612
9.5872228333866	0.62842755906211
9.5658091257179	0.62847251718282
9.5444908627826	0.62851777075122
9.5232674078780	0.62856332058897
9.5021381299525	0.62860916744732
9.4811024035421	0.62865531200804
9.4601596087094	0.62870175488431
9.4393091309824	0.62874849662164
9.4185503612944	0.62879553769883
9.3978826959248	0.62884287852878
9.3773055364404	0.62889051945952
9.3568182896380	0.62893846077503
9.3364203674868	0.62898670269621
9.3161111870727	0.62903524538174
9.2958901705426	0.62908408892904
9.2757567450495	0.62913323337517
9.2557103426984	0.62918267869769
9.2357504004929	0.62923242481564
9.2158763602828	0.62928247159038
9.1960876687117	0.62933281882656
9.1763837771656	0.62938346627294
9.1567641417227	0.62943441362339
9.1372282231027	0.62948566051771
9.1177754866180	0.62953720654257
9.0984054021244	0.62958905123239
9.0791174439733	0.62964119407027
9.0599110909640	0.62969363448880
9.0407858262967	0.62974637187107
9.0217411375263	0.62979940555143
9.0027765165165	0.62985273481649
8.9838914593947	0.62990635890592
8.9650854665072	0.62996027701339
8.9463580423754	0.63001448828741
8.9277086956522	0.63006899183222
8.9091369390788	0.63012378670865
8.8906422894425	0.63017887193504
8.8722242675348	0.63023424648803
8.8538823981099	0.63028990930348
8.8356162098438	0.63034585927732
8.8174252352941	0.63040209526638
8.7993090108600	0.63045861608930
8.7812670767428	0.63051542052731
8.7632989769073	0.63057250732515
8.7454042590432	0.63062987519185
8.7275824745269	0.63068752280161
8.7098331783847	0.63074544879462
8.6921559292549	0.63080365177791
8.6745502893519	0.63086213032615
8.6570158244297	0.63092088298248
8.6395521037464	0.63097990825937
8.6221587000288	0.63103920463939
8.6048351894374	0.63109877057602
8.5875811515325	0.63115860449451
8.5703961692396	0.63121870479263
8.5532798288160	0.63127906984147
8.5362317198178	0.63133969798630
8.5192514350668	0.63140058754727
8.5023385706183	0.63146173682024
8.4854927257288	0.63152314407758
8.4687135028249	0.63158480756890
8.4520005074711	0.63164672552186
8.4353533483399	0.63170889614291
8.4187716371806	0.63177131761806
8.4022549887892	0.63183398811364
8.3858030209790	0.63189690577703
8.3694153545505	0.63196006873744
8.3530916132627	0.63202347510663
8.3368314238042	0.63208712297964
8.3206344157646	0.63215101043552
8.3045002216066	0.63221513553807
8.2884284766381	0.63227949633654
8.2724188189845	0.63234409086638
8.2564708895621	0.63240891714987
8.2405843320506	0.63247397319691
8.2247587928669	0.63253925700567
8.2089939211391	0.63260476656328
8.1932893686800	0.63267049984651
8.1776447899618	0.63273645482251
8.1620598420909	0.63280262944938
8.1465341847826	0.63286902167692
8.1310674803363	0.63293562944725
8.1156593936113	0.63300245069551
8.1003095920022	0.63306948335042
8.0850177454153	0.63313672533504
8.0697835262450	0.63320417456731
8.0546066093498	0.63327182896073
8.0394866720300	0.63333968642496
8.0244233940043	0.63340774486648
8.0094164573871	0.63347600218913
7.9944655466667	0.63354445629479
7.9795703486825	0.63361310508394
7.9647305526036	0.63368194645625
7.9499458499072	0.63375097831118
7.9352159343568	0.63382019854857
7.9205405019815	0.63388960506916
7.9059192510549	0.63395919577524
7.8913518820742	0.63402896857113
7.8768380977404	0.63409892136380
7.8623776029373	0.63416905206336
7.8479701047120	0.63423935858363
7.8336153122550	0.63430983884269
7.8193129368805	0.63438049076335
7.8050626920073	0.63445131227373
7.7908642931393	0.63452230130775
7.7767174578470	0.63459345580564
7.7626219057483	0.63466477371440
7.7485773584906	0.63473625298836
7.7345835397317	0.63480789158964
7.7206401751223	0.63487968748859
7.7067469922879	0.63495163866432
7.6929037208109	0.63502374310514
7.6791100922131	0.63509599880899
7.6653658399386	0.63516840378395
7.6516706993364	0.63524095604863
7.6380244076433	0.63531365363266
7.6244267039674	0.63538649457706
7.6108773292714	0.63545947693471
7.5973760263558	0.63553259877074
7.5839225398432	0.63560585816295
7.5705166161616	0.63567925320224
7.5571580035291	0.63575278199293
7.5438464519376	0.63582644265322
7.5305817131374	0.63590023331554
7.5173635406219	0.63597415212694
7.5041916896120	0.63604819724943
7.4910659170415	0.63612236686035
7.4779859815415	0.63619665915276
7.4649516434263	0.63627107233572
7.4519626646781	0.63634560463467
7.4390188089330	0.63642025429177
7.4261198414664	0.63649501956618
7.4132655291790	0.63656989873442
7.4004556405826	0.63664489009066
7.3876899457861	0.63671999194704
7.3749682164822	0.63679520263392
7.3622902259332	0.63687052050024
7.3496557489581	0.63694594391373
7.3370645619187	0.63702147126125
7.3245164427071	0.63709710094899
7.3120111707317	0.63717283140279
7.2995485269053	0.63724866106835
7.2871282936315	0.63732458841152
7.2747502547925	0.63740061191850
7.2624141957364	0.63747673009607
7.2501199032648	0.63755294147187
7.2378671656205	0.63762924459454
7.2256557724753	0.63770563803400
7.2134855149182	0.63778212038161
7.2013561854432	0.63785869025040
7.1892675779376	0.63793534627522
7.1772194876706	0.63801208711297
7.1652117112811	0.63808891144275
7.1532440467669	0.63816581796601
7.1413162934731	0.63824280540678
7.1294282520809	0.63831987251174
7.1175797245964	0.63839701805045
7.1057705143399	0.63847424081543
7.0940004259347	0.63855153962232
7.0822692652965	0.63862891331004
7.0705768396226	0.63870636074086
7.0589229573817	0.63878388080054
7.0473074283028	0.63886147239843
7.0357300633654	0.63893913446761
7.0241906747891	0.63901686596493
7.0126890760234	0.63909466587113
7.0012250817375	0.63917253319093
6.9897985078107	0.63925046695309
6.9784091713222	0.63932846621048
6.9670568905415	0.63940653004016
6.9557414849188	0.63948465754342
6.9444627750753	0.63956284784583
6.9332205827937	0.63964110009730
6.9220147310090	0.63971941347212
6.9108450437990	0.63979778716895
6.8997113463751	0.63987622041091
6.8886134650735	0.63995471244555
6.8775512273457	0.64003326254489
6.8665244617499	0.64011187000541
6.8555329979419	0.64019053414805
6.8445766666667	0.64026925431825
6.8336552997493	0.64034802988586
6.8227687300865	0.64042686024519
6.8119167916383	0.64050574481498
6.8010993194192	0.64058468303832
6.7903161494904	0.64066367438268
6.7795671189507	0.64074271833983
6.7688520659291	0.64082181442583
6.7581708295762	0.64090096218093
6.7475232500563	0.64098016116955
6.7369091685393	0.64105941098021
6.7263284271932	0.64113871122545
6.7157808691756	0.64121806154179
6.7052663386267	0.64129746158961
6.6947846806610	0.64137691105309
6.6843357413601	0.64145640964012
6.6739193677649	0.64153595708218
6.6635354078684	0.64161555313430
6.6531837106081	0.64169519757489
6.6428641258586	0.64177489020566
6.6325765044248	0.64185463085150
6.6223206980340	0.64193441936039
6.6120965593295	0.64201425560323
6.6019039418630	0.64209413947371
6.5917427000879	0.64217407088822
6.5816126893524	0.64225404978569
6.5715137658922	0.64233407612744
6.5614457868243	0.64241414989701
6.5514086101399	0.64249427110006
6.5414020946978	0.64257443976417
6.5314261002179	0.64265465593871
6.5214804872743	0.64273491969464
6.5115651172893	0.64281523112436
6.5016798525266	0.64289559034153
6.4918245560849	0.64297599748091
6.4819990918919	0.64305645269814
6.4722033246978	0.64313695616959
6.4624371200690	0.64321750809214
6.4527003443823	0.64329810868300
6.4429928648184	0.64337875817953
6.4333145493562	0.64345945683897
6.4236652667667	0.64354020493834
6.4140448866068	0.64362100277413
6.4044532792138	0.64370185066214
6.3948903156997	0.64378274893724
6.3853558679446	0.64386369795318
6.3758498085921	0.64394469808233
6.3663720110427	0.64402574971547
6.3569223494487	0.64410685326157
6.3475006987084	0.64418800914753
6.3381069344609	0.64426921781797
6.3287409330800	0.64435047973496
6.3194025716695	0.64443179537782
6.3100917280572	0.64451316524283
6.3008082807902	0.64459458984300
6.2915521091291	0.64467606970783
6.2823230930427	0.64475760538304
6.2731211132036	0.64483919743032
6.2639460509820	0.64492084642707
6.2547977884415	0.64500255296612
6.2456762083333	0.64508431765550
6.2365811940919	0.64516614111816
6.2275126298297	0.64524802399168
6.2184704003319	0.64532996692803
6.2094543910522	0.64541197059326
6.2004644881075	0.64549403566727
6.1915005782734	0.64557616284350
6.1825625489792	0.64565835282866
6.1736502883031	0.64574060634245
6.1647636849681	0.64582292411727
6.1559026283368	0.64590530689793
6.1470670084068	0.64598775544140
6.1382567158067	0.64607027051648
6.1294716417910	0.64615285290351
6.1207116782360	0.64623550339413
6.1119767176351	0.64631822279091
6.1032666530945	0.64640101190714
6.0945813783289	0.64648387156647
6.0859207876573	0.64656680260263
6.0772847759984	0.64664980585915
6.0686732388664	0.64673288218905
6.0600860723671	0.64681603245454
6.0515231731934	0.64689925752673
6.0429844386212	0.64698255828530
6.0344697665056	0.64706593561824
6.0259790552764	0.64714939042151
6.0175122039342	0.64723292359876
6.0090691120465	0.64731653606102
6.0006496797438	0.64740022872639
5.9922538077154	0.64748400251974
5.9838813972056	0.64756785837242
5.9755323500100	0.64765179722191
5.9672065684713	0.64773582001159
5.9589039554760	0.64781992769035
5.9506244144502	0.64790412121233
5.9423678493558	0.64798840153663
5.9341341646873	0.64807276962697
5.9259232654675	0.64815722645139
5.9177350572444	0.64824177298197
5.9095694460871	0.64832641019448
5.9014263385827	0.64841113906815
5.8933056418321	0.64849596058527
5.8852072634472	0.64858087573097
5.8771311115468	0.64866588549286
5.8690770947533	0.64875099086077
5.8610451221896	0.64883619282642
5.8530351034752	0.64892149238313
5.8450469487229	0.64900689052550
5.8370805685358	0.64909238824917
5.8291358740035	0.64917798655043
5.8212127766990	0.64926368642601
5.8133111886756	0.64934948887273
5.8054310224632	0.64943539488721
5.7975721910656	0.64952140546562
5.7897346079567	0.64960752160332
5.7819181870781	0.64969374429462
5.7741228428351	0.64978007453247
5.7663484900942	0.64986651330816
5.7585950441798	0.64995306161107
5.7508624208709	0.65003972042835
5.7431505363985	0.65012649074463
5.7354593074421	0.65021337354178
5.7277886511272	0.65030036979859
5.7201384850219	0.65038748049050
5.7125087271341	0.65047470658934
5.7048992959087	0.65056204906302
5.6973101102242	0.65064950887531
5.6897410893908	0.65073708698551
5.6821921531463	0.65082478434822
5.6746632216544	0.65091260191306
5.6671542155009	0.65100054062441
5.6596650556919	0.65108860142112
5.6521956636501	0.65117678523631
5.6447459612126	0.65126509299705
5.6373158706281	0.65135352562413
5.6299053145540	0.65144208403181
5.6225142160540	0.65153076912757
5.6151424985952	0.65161958181184
5.6077900860456	0.65170852297780
5.6004569026714	0.65179759351106
5.5931428731343	0.65188679428952
5.5858479224893	0.65197612618303
5.5785719761816	0.65206559005326
5.5713149600446	0.65215518675335
5.5640768002970	0.65224491712779
5.5568574235403	0.65233478201213
5.5496567567568	0.65242478223276
5.5424747273063	0.65251491860673
5.5353112629247	0.65260519194148
5.5281662917204	0.65269560303466
5.5210397421731	0.65278615267392
5.5139315431304	0.65287684163667
5.5068416238060	0.65296767068991
5.4997699137773	0.65305864059002
5.4927163429828	0.65314975208255
5.4856808417200	0.65324100590203
5.4786633406433	0.65333240277179
5.4716637707611	0.65342394340373
5.4646820634342	0.65351562849822
5.4577181503732	0.65360745874382
5.4507719636364	0.65369943481718
5.4438434356274	0.65379155738280
5.4369324990932	0.65388382709293
5.4300390871219	0.65397624458733
5.4231631331404	0.65406881049318
5.4163045709124	0.65416152542486
5.4094633345363	0.65425438998382
5.4026393584430	0.65434740475841
5.3958325773938	0.65444057032378
5.3890429264785	0.65453388724167
5.3822703411131	0.65462735606032
5.3755147570378	0.65472097731431
5.3687761103152	0.65481475152440
5.3620543373278	0.65490867919748
5.3553493747767	0.65500276082636
5.3486611596789	0.65509699688969
5.3419896293656	0.65519138785184
5.3353347214807	0.65528593416278
5.3286963739780	0.65538063625798
5.3220745251198	0.65547549455829
5.3154691134752	0.65557050946984
5.3088800779175	0.65566568138396
5.3023073576229	0.65576101067707
5.2957508920685	0.65585649771060
5.2892106210303	0.65595214283089
5.2826864845815	0.65604794636913
5.2761784230905	0.65614390864128
5.2696863772192	0.65624002994797
5.2632102879213	0.65633631057447
5.2567500964405	0.65643275079061
5.2503057443082	0.65652935085070
5.2438771733427	0.65662611099352
5.2374643256464	0.65672303144221
5.2310671436050	0.65682011240428
5.2246855698850	0.65691735407152
5.2183195474326	0.65701475662001
5.2119690194715	0.65711232021004
5.2056339295016	0.65721004498609
5.1993142212973	0.65730793107683
5.1930098389052	0.65740597859506
5.1867207266436	0.65750418763774
5.1804468290997	0.65760255828593
5.1741880911288	0.65770109060482
5.1679444578521	0.65779978464367
5.1617158746556	0.65789864043589
5.1555022871883	0.65799765799898
5.1493036413604	0.65809683733457
5.1431198833419	0.65819617842840
5.1369509595613	0.65829568125039
5.1307968167037	0.65839534575462
5.1246574017094	0.65849517187936
5.1185326617722	0.65859515954711
5.1124225443383	0.65869530866464
5.1063269971044	0.65879561912301
5.1002459680163	0.65889609079763
5.0941794052676	0.65899672354830
5.0881272572980	0.65909751721926
5.0820894727920	0.65919847163925
5.0760660006773	0.65929958662156
5.0700567901235	0.65940086196410
5.0640617905405	0.65950229744949
5.0580809515775	0.65960389284509
5.0521142231210	0.65970564790310
5.0461615552937	0.65980756236066
5.0402228984533	0.65990963593990
5.0342982031906	0.66001186834804
5.0283874203287	0.66011425927748
5.0224905009214	0.66021680840594
5.0166073962517	0.66031951539650
5.0107380578305	0.66042237989772
5.0048824373957	0.66052540154380
4.9990404869101	0.66062857995460
4.9932121585610	0.66073191473588
4.9873974047579	0.66083540547929
4.9815961781323	0.66093905176260
4.9758084315353	0.66104285314977
4.9700341180371	0.66114680919113
4.9642731909256	0.66125091942345
4.9585256037049	0.66135518337015
4.9527913100942	0.66145960054140
4.9470702640264	0.66156417043430
4.9413624196473	0.66166889253301
4.9356677313138	0.66177376630891
4.9299861535932	0.66187879122076
4.9243176412615	0.66198396671489
4.9186621493027	0.66208929222532
4.9130196329072	0.66219476717397
4.9073900474709	0.66230039097081
4.9017733485939	0.66240616301406
4.8961694920790	0.66251208269034
4.8905784339315	0.66261814937490
4.8850001303569	0.66272436243178
4.8794345377604	0.66283072121397
4.8738816127459	0.66293722506369
4.8683413121143	0.66304387331251
4.8628135928629	0.66315066528159
4.8572984121841	0.66325760028187
4.8517957274640	0.66336467761428
4.8463054962819	0.66347189656998
4.8408276764088	0.66357925643052
4.8353622258065	0.66368675646811
