#Parameters = {thARC=0; nARC=2.25; thsub=1; p=1; nSub=4.25}
#"Wavelength / um"	"T (733) [Real Part]"
#---------------------------------------
14.989622900000	0.61677983149956
14.937342202292	0.61681435237503
14.885424925521	0.61684786464148
14.833867293419	0.61688038262635
14.782665581854	0.61691192057644
14.731816117936	0.61694249265696
14.681315279138	0.61697211295081
14.631159492435	0.61700079545768
14.581345233463	0.61702855409327
14.531869025691	0.61705540268855
14.482727439614	0.61708135498898
14.433917091960	0.61710642465377
14.385434644914	0.61713062525516
14.337276805356	0.61715397027777
14.289440324118	0.61717647311786
14.241921995249	0.61719814708275
14.194718655303	0.61721900539010
14.147827182633	0.61723906116737
14.101244496707	0.61725832745118
14.054967557431	0.61727681718674
14.008993364486	0.61729454322731
13.963318956684	0.61731151833364
13.917941411328	0.61732775517346
13.872857843591	0.61734326632099
13.828065405904	0.61735806425643
13.783561287356	0.61737216136552
13.739342713107	0.61738556993908
13.695406943810	0.61739830217259
13.651751275046	0.61741037016580
13.608373036768	0.61742178592230
13.565269592760	0.61743256134916
13.522438340099	0.61744270825661
13.479876708633	0.61745223835764
13.437582160466	0.61746116326774
13.395552189455	0.61746949450455
13.353784320713	0.61747724348761
13.312276110124	0.61748442153807
13.271025143869	0.61749103987844
13.230029037952	0.61749710963234
13.189285437747	0.61750264182434
13.148792017544	0.61750764737966
13.108546480105	0.61751213712409
13.068546556234	0.61751612178373
13.028790004346	0.61751961198490
12.989274610052	0.61752261825394
12.949998185745	0.61752515101715
12.910958570198	0.61752722060065
12.872153628167	0.61752883723028
12.833581250000	0.61753001103151
12.795239351259	0.61753075202945
12.757125872340	0.61753107014870
12.719238778108	0.61753097521339
12.681576057530	0.61753047694713
12.644135723323	0.61752958497301
12.606915811606	0.61752830881363
12.569914381551	0.61752665789107
12.533129515050	0.61752464152698
12.496559316382	0.61752226894261
12.460201911887	0.61751954925886
12.424055449648	0.61751649149640
12.388118099174	0.61751310457568
12.352388051092	0.61750939731713
12.316863516845	0.61750537844119
12.281542728390	0.61750105656852
12.246423937908	0.61749644022004
12.211505417515	0.61749153781718
12.176785458976	0.61748635768199
12.142262373431	0.61748090803732
12.107934491115	0.61747519700702
12.073800161095	0.61746923261615
12.039857751004	0.61746302279116
12.006105646776	0.61745657536014
11.972542252396	0.61744989805304
11.939165989646	0.61744299850191
11.905975297855	0.61743588424116
11.872968633663	0.61742856270784
11.840144470774	0.61742104124190
11.807501299724	0.61741332708646
11.775037627651	0.61740542738815
11.742751978065	0.61739734919738
11.710642890625	0.61738909946864
11.678708920919	0.61738068506090
11.646948640249	0.61737211273785
11.615360635413	0.61736338916832
11.583943508501	0.61735452092659
11.552695876686	0.61734551449276
11.521616372022	0.61733637625312
11.490703641242	0.61732711250056
11.459956345566	0.61731772943489
11.429373160503	0.61730823316332
11.398952775665	0.61729862970080
11.368693894577	0.61728892497045
11.338595234493	0.61727912480399
11.308655526217	0.61726923494216
11.278873513920	0.61725926103515
11.249247954972	0.61724920864307
11.219777619760	0.61723908323635
11.190461291527	0.61722889019625
11.161297766195	0.61721863481527
11.132285852209	0.61720832229770
11.103424370370	0.61719795775998
11.074712153676	0.61718754623132
11.046148047163	0.61717709265407
11.017730907755	0.61716660188429
10.989459604106	0.61715607869223
10.961333016453	0.61714552776282
10.933350036470	0.61713495369624
10.905509567115	0.61712436100837
10.877810522496	0.61711375413136
10.850251827723	0.61710313741414
10.822832418773	0.61709251512298
10.795551242348	0.61708189144200
10.768407255747	0.61707127047374
10.741399426729	0.61706065623971
10.714526733381	0.61705005268093
10.687788163993	0.61703946365848
10.661182716927	0.61702889295413
10.634709400497	0.61701834427082
10.608367232838	0.61700782123328
10.582155241793	0.61699732738864
10.556072464789	0.61698686620693
10.530117948718	0.61697644108172
10.504290749825	0.61696605533072
10.478589933590	0.61695571219634
10.453014574616	0.61694541484627
10.427563756522	0.61693516637414
10.402236571825	0.61692496980007
10.377032121841	0.61691482807131
10.351949516575	0.61690474406280
10.326987874612	0.61689472057784
10.302146323024	0.61688476034868
10.277423997257	0.61687486603710
10.252820041040	0.61686504023511
10.228333606278	0.61685528546549
10.203963852961	0.61684560418246
10.179709949066	0.61683599877229
10.155571070461	0.61682647155395
10.131546400811	0.61681702477970
10.107635131490	0.61680766063576
10.083836461487	0.61679838124293
10.060149597315	0.61678918865722
10.036573752929	0.61678008487050
10.013108149633	0.61677107181112
9.9897520159947	0.61676215134456
9.9665045877660	0.61675332527410
9.9433651077944	0.61674459534139
9.9203328259431	0.61673596322719
9.8974069990096	0.61672743055191
9.8745868906456	0.61671899887635
9.8518717712783	0.61671066970228
9.8292609180328	0.61670244447313
9.8067536146549	0.61669432457459
9.7843491514360	0.61668631133533
9.7620468251384	0.61667840602757
9.7398459389214	0.61667060986777
9.7177458022690	0.61666292401729
9.6957457309185	0.61665534958299
9.6738450467893	0.61664788761796
9.6520430779137	0.61664053912207
9.6303391583681	0.61663330504269
9.6087326282051	0.61662618627534
9.5872228333866	0.61661918366427
9.5658091257179	0.61661229800321
9.5444908627826	0.61660553003591
9.5232674078780	0.61659888045688
9.5021381299525	0.61659234991197
9.4811024035421	0.61658593899907
9.4601596087094	0.61657964826871
9.4393091309824	0.61657347822471
9.4185503612944	0.61656742932487
9.3978826959248	0.61656150198156
9.3773055364404	0.61655569656238
9.3568182896380	0.61655001339080
9.3364203674868	0.61654445274681
9.3161111870727	0.61653901486754
9.2958901705426	0.61653369994790
9.2757567450495	0.61652850814123
9.2557103426984	0.61652343955993
9.2357504004929	0.61651849427606
9.2158763602828	0.61651367232203
9.1960876687117	0.61650897369117
9.1763837771656	0.61650439833839
9.1567641417227	0.61649994618081
9.1372282231027	0.61649561709835
9.1177754866180	0.61649141093439
9.0984054021244	0.61648732749637
9.0791174439733	0.61648336655642
9.0599110909640	0.61647952785194
9.0407858262967	0.61647581108626
9.0217411375263	0.61647221592924
9.0027765165165	0.61646874201783
8.9838914593947	0.61646538895677
8.9650854665072	0.61646215631909
8.9463580423754	0.61645904364680
8.9277086956522	0.61645605045143
8.9091369390788	0.61645317621465
8.8906422894425	0.61645042038887
8.8722242675348	0.61644778239780
8.8538823981099	0.61644526163711
8.8356162098438	0.61644285747490
8.8174252352941	0.61644056925241
8.7993090108600	0.61643839628451
8.7812670767428	0.61643633786031
8.7632989769073	0.61643439324374
8.7454042590432	0.61643256167411
8.7275824745269	0.61643084236668
8.7098331783847	0.61642923451322
8.6921559292549	0.61642773728260
8.6745502893519	0.61642634982129
8.6570158244297	0.61642507125399
8.6395521037464	0.61642390068413
8.6221587000288	0.61642283719444
8.6048351894374	0.61642187984747
8.5875811515325	0.61642102768617
8.5703961692396	0.61642027973442
8.5532798288160	0.61641963499752
8.5362317198178	0.61641909246279
8.5192514350668	0.61641865110006
8.5023385706183	0.61641830986220
8.4854927257288	0.61641806768562
8.4687135028249	0.61641792349085
8.4520005074711	0.61641787618296
8.4353533483399	0.61641792465218
8.4187716371806	0.61641806777430
8.4022549887892	0.61641830441126
8.3858030209790	0.61641863341157
8.3694153545505	0.61641905361088
8.3530916132627	0.61641956383241
8.3368314238042	0.61642016288747
8.3206344157646	0.61642084957594
8.3045002216066	0.61642162268674
8.2884284766381	0.61642248099831
8.2724188189845	0.61642342327907
8.2564708895621	0.61642444828790
8.2405843320506	0.61642555477461
8.2247587928669	0.61642674148037
8.2089939211391	0.61642800713820
8.1932893686800	0.61642935047339
8.1776447899618	0.61643077020396
8.1620598420909	0.61643226504109
8.1465341847826	0.61643383368959
8.1310674803363	0.61643547484830
8.1156593936113	0.61643718721052
8.1003095920022	0.61643896946446
8.0850177454153	0.61644082029364
8.0697835262450	0.61644273837731
8.0546066093498	0.61644472239086
8.0394866720300	0.61644677100624
8.0244233940043	0.61644888289234
8.0094164573871	0.61645105671542
7.9944655466667	0.61645329113947
7.9795703486825	0.61645558482663
7.9647305526036	0.61645793643754
7.9499458499072	0.61646034463177
7.9352159343568	0.61646280806814
7.9205405019815	0.61646532540515
7.9059192510549	0.61646789530129
7.8913518820742	0.61647051641545
7.8768380977404	0.61647318740724
7.8623776029373	0.61647590693739
7.8479701047120	0.61647867366803
7.8336153122550	0.61648148626311
7.8193129368805	0.61648434338870
7.8050626920073	0.61648724371332
7.7908642931393	0.61649018590828
7.7767174578470	0.61649316864802
7.7626219057483	0.61649619061042
7.7485773584906	0.61649925047710
7.7345835397317	0.61650234693377
7.7206401751223	0.61650547867050
7.7067469922879	0.61650864438204
7.6929037208109	0.61651184276813
7.6791100922131	0.61651507253377
7.6653658399386	0.61651833238952
7.6516706993364	0.61652162105181
7.6380244076433	0.61652493724315
7.6244267039674	0.61652827969249
7.6108773292714	0.61653164713544
7.5973760263558	0.61653503831453
7.5839225398432	0.61653845197951
7.5705166161616	0.61654188688758
7.5571580035291	0.61654534180364
7.5438464519376	0.61654881550055
7.5305817131374	0.61655230675936
7.5173635406219	0.61655581436956
7.5041916896120	0.61655933712931
7.4910659170415	0.61656287384567
7.4779859815415	0.61656642333481
7.4649516434263	0.61656998442225
7.4519626646781	0.61657355594306
7.4390188089330	0.61657713674210
7.4261198414664	0.61658072567416
7.4132655291790	0.61658432160424
7.4004556405826	0.61658792340770
7.3876899457861	0.61659152997045
7.3749682164822	0.61659514018916
7.3622902259332	0.61659875297145
7.3496557489581	0.61660236723602
7.3370645619187	0.61660598191287
7.3245164427071	0.61660959594346
7.3120111707317	0.61661320828086
7.2995485269053	0.61661681788993
7.2871282936315	0.61662042374745
7.2747502547925	0.61662402484232
7.2624141957364	0.61662762017563
7.2501199032648	0.61663120876088
7.2378671656205	0.61663478962408
7.2256557724753	0.61663836180388
7.2134855149182	0.61664192435171
7.2013561854432	0.61664547633192
7.1892675779376	0.61664901682186
7.1772194876706	0.61665254491204
7.1652117112811	0.61665605970620
7.1532440467669	0.61665956032148
7.1413162934731	0.61666304588845
7.1294282520809	0.61666651555124
7.1175797245964	0.61666996846767
7.1057705143399	0.61667340380928
7.0940004259347	0.61667682076147
7.0822692652965	0.61668021852352
7.0705768396226	0.61668359630875
7.0589229573817	0.61668695334452
7.0473074283028	0.61669028887234
7.0357300633654	0.61669360214793
7.0241906747891	0.61669689244127
7.0126890760234	0.61670015903668
7.0012250817375	0.61670340123283
6.9897985078107	0.61670661834286
6.9784091713222	0.61670980969435
6.9670568905415	0.61671297462941
6.9557414849188	0.61671611250471
6.9444627750753	0.61671922269151
6.9332205827937	0.61672230457567
6.9220147310090	0.61672535755771
6.9108450437990	0.61672838105284
6.8997113463751	0.61673137449090
6.8886134650735	0.61673433731650
6.8775512273457	0.61673726898891
6.8665244617499	0.61674016898215
6.8555329979419	0.61674303678495
6.8445766666667	0.61674587190079
6.8336552997493	0.61674867384783
6.8227687300865	0.61675144215900
6.8119167916383	0.61675417638188
6.8010993194192	0.61675687607878
6.7903161494904	0.61675954082668
6.7795671189507	0.61676217021719
6.7688520659291	0.61676476385658
6.7581708295762	0.61676732136570
6.7475232500563	0.61676984237999
6.7369091685393	0.61677232654940
6.7263284271932	0.61677477353840
6.7157808691756	0.61677718302592
6.7052663386267	0.61677955470530
6.6947846806610	0.61678188828425
6.6843357413601	0.61678418348478
6.6739193677649	0.61678644004320
6.6635354078684	0.61678865770999
6.6531837106081	0.61679083624981
6.6428641258586	0.61679297544139
6.6325765044248	0.61679507507749
6.6223206980340	0.61679713496481
6.6120965593295	0.61679915492394
6.6019039418630	0.61680113478928
6.5917427000879	0.61680307440896
6.5816126893524	0.61680497364476
6.5715137658922	0.61680683237203
6.5614457868243	0.61680865047959
6.5514086101399	0.61681042786969
6.5414020946978	0.61681216445785
6.5314261002179	0.61681386017282
6.5214804872743	0.61681551495648
6.5115651172893	0.61681712876371
6.5016798525266	0.61681870156231
6.4918245560849	0.61682023333291
6.4819990918919	0.61682172406885
6.4722033246978	0.61682317377606
6.4624371200690	0.61682458247298
6.4527003443823	0.61682595019042
6.4429928648184	0.61682727697148
6.4333145493562	0.61682856287138
6.4236652667667	0.61682980795738
6.4140448866068	0.61683101230869
6.4044532792138	0.61683217601625
6.3948903156997	0.61683329918270
6.3853558679446	0.61683438192222
6.3758498085921	0.61683542436038
6.3663720110427	0.61683642663405
6.3569223494487	0.61683738889121
6.3475006987084	0.61683831129089
6.3381069344609	0.61683919400297
6.3287409330800	0.61684003720807
6.3194025716695	0.61684084109743
6.3100917280572	0.61684160587271
6.3008082807902	0.61684233174591
6.2915521091291	0.61684301893918
6.2823230930427	0.61684366768471
6.2731211132036	0.61684427822456
6.2639460509820	0.61684485081050
6.2547977884415	0.61684538570390
6.2456762083333	0.61684588317555
6.2365811940919	0.61684634350549
6.2275126298297	0.61684676698290
6.2184704003319	0.61684715390592
6.2094543910522	0.61684750458148
6.2004644881075	0.61684781932517
6.1915005782734	0.61684809846106
6.1825625489792	0.61684834232155
6.1736502883031	0.61684855124721
6.1647636849681	0.61684872558662
6.1559026283368	0.61684886569619
6.1470670084068	0.61684897194002
6.1382567158067	0.61684904468970
6.1294716417910	0.61684908432419
6.1207116782360	0.61684909122963
6.1119767176351	0.61684906579917
6.1032666530945	0.61684900843279
6.0945813783289	0.61684891953717
6.0859207876573	0.61684879952549
6.0772847759984	0.61684864881727
6.0686732388664	0.61684846783819
6.0600860723671	0.61684825701994
6.0515231731934	0.61684801680004
6.0429844386212	0.61684774762164
6.0344697665056	0.61684744993339
6.0259790552764	0.61684712418926
6.0175122039342	0.61684677084834
6.0090691120465	0.61684639037470
6.0006496797438	0.61684598323719
5.9922538077154	0.61684554990928
5.9838813972056	0.61684509086890
5.9755323500100	0.61684460659823
5.9672065684713	0.61684409758356
5.9589039554760	0.61684356431511
5.9506244144502	0.61684300728685
5.9423678493558	0.61684242699631
5.9341341646873	0.61684182394445
5.9259232654675	0.61684119863544
5.9177350572444	0.61684055157652
5.9095694460871	0.61683988327782
5.9014263385827	0.61683919425216
5.8933056418321	0.61683848501492
5.8852072634472	0.61683775608385
5.8771311115468	0.61683700797888
5.8690770947533	0.61683624122199
5.8610451221896	0.61683545633698
5.8530351034752	0.61683465384936
5.8450469487229	0.61683383428616
5.8370805685358	0.61683299817573
5.8291358740035	0.61683214604760
5.8212127766990	0.61683127843234
5.8133111886756	0.61683039586132
5.8054310224632	0.61682949886660
5.7975721910656	0.61682858798076
5.7897346079567	0.61682766373670
5.7819181870781	0.61682672666751
5.7741228428351	0.61682577730630
5.7663484900942	0.61682481618601
5.7585950441798	0.61682384383929
5.7508624208709	0.61682286079831
5.7431505363985	0.61682186759460
5.7354593074421	0.61682086475892
5.7277886511272	0.61681985282105
5.7201384850219	0.61681883230969
5.7125087271341	0.61681780375226
5.7048992959087	0.61681676767477
5.6973101102242	0.61681572460166
5.6897410893908	0.61681467505565
5.6821921531463	0.61681361955756
5.6746632216544	0.61681255862621
5.6671542155009	0.61681149277823
5.6596650556919	0.61681042252794
5.6521956636501	0.61680934838719
5.6447459612126	0.61680827086519
5.6373158706281	0.61680719046843
5.6299053145540	0.61680610770048
5.6225142160540	0.61680502306186
5.6151424985952	0.61680393704993
5.6077900860456	0.61680285015872
5.6004569026714	0.61680176287880
5.5931428731343	0.61680067569717
5.5858479224893	0.61679958909709
5.5785719761816	0.61679850355796
5.5713149600446	0.61679741955522
5.5640768002970	0.61679633756017
5.5568574235403	0.61679525803988
5.5496567567568	0.61679418145706
5.5424747273063	0.61679310826992
5.5353112629247	0.61679203893206
5.5281662917204	0.61679097389237
5.5210397421731	0.61678991359485
5.5139315431304	0.61678885847857
5.5068416238060	0.61678780897750
5.4997699137773	0.61678676552042
5.4927163429828	0.61678572853081
5.4856808417200	0.61678469842673
5.4786633406433	0.61678367562073
5.4716637707611	0.61678266051971
5.4646820634342	0.61678165352486
5.4577181503732	0.61678065503153
5.4507719636364	0.61677966542914
5.4438434356274	0.61677868510109
5.4369324990932	0.61677771442463
5.4300390871219	0.61677675377081
5.4231631331404	0.61677580350438
5.4163045709124	0.61677486398366
5.4094633345363	0.61677393556052
5.4026393584430	0.61677301858023
5.3958325773938	0.61677211338140
5.3890429264785	0.61677122029594
5.3822703411131	0.61677033964889
5.3755147570378	0.61676947175845
5.3687761103152	0.61676861693582
5.3620543373278	0.61676777548517
5.3553493747767	0.61676694770354
5.3486611596789	0.61676613388083
5.3419896293656	0.61676533429965
5.3353347214807	0.61676454923534
5.3286963739780	0.61676377895583
5.3220745251198	0.61676302372165
5.3154691134752	0.61676228378583
5.3088800779175	0.61676155939385
5.3023073576229	0.61676085078360
5.2957508920685	0.61676015818532
5.2892106210303	0.61675948182157
5.2826864845815	0.61675882190715
5.2761784230905	0.61675817864907
5.2696863772192	0.61675755224654
5.2632102879213	0.61675694289088
5.2567500964405	0.61675635076552
5.2503057443082	0.61675577604594
5.2438771733427	0.61675521889967
5.2374643256464	0.61675467948621
5.2310671436050	0.61675415795707
5.2246855698850	0.61675365445568
5.2183195474326	0.61675316911740
5.2119690194715	0.61675270206949
5.2056339295016	0.61675225343111
5.1993142212973	0.61675182331327
5.1930098389052	0.61675141181884
5.1867207266436	0.61675101904254
5.1804468290997	0.61675064507091
5.1741880911288	0.61675028998234
5.1679444578521	0.61674995384701
5.1617158746556	0.61674963672695
5.1555022871883	0.61674933867600
5.1493036413604	0.61674905973980
5.1431198833419	0.61674879995587
5.1369509595613	0.61674855935350
5.1307968167037	0.61674833795387
5.1246574017094	0.61674813577000
5.1185326617722	0.61674795280678
5.1124225443383	0.61674778906098
5.1063269971044	0.61674764452128
5.1002459680163	0.61674751916827
5.0941794052676	0.61674741297452
5.0881272572980	0.61674732590453
5.0820894727920	0.61674725791484
5.0760660006773	0.61674720895398
5.0700567901235	0.61674717896258
5.0640617905405	0.61674716787334
5.0580809515775	0.61674717561111
5.0521142231210	0.61674720209288
5.0461615552937	0.61674724722790
5.0402228984533	0.61674731091764
5.0342982031906	0.61674739305587
5.0283874203287	0.61674749352873
5.0224905009214	0.61674761221474
5.0166073962517	0.61674774898487
5.0107380578305	0.61674790370261
5.0048824373957	0.61674807622398
4.9990404869101	0.61674826639763
4.9932121585610	0.61674847406491
4.9873974047579	0.61674869905988
4.9815961781323	0.61674894120941
4.9758084315353	0.61674920033325
4.9700341180371	0.61674947624409
4.9642731909256	0.61674976874760
4.9585256037049	0.61675007764258
4.9527913100942	0.61675040272095
4.9470702640264	0.61675074376788
4.9413624196473	0.61675110056184
4.9356677313138	0.61675147287469
4.9299861535932	0.61675186047179
4.9243176412615	0.61675226311203
4.9186621493027	0.61675268054795
4.9130196329072	0.61675311252582
4.9073900474709	0.61675355878576
4.9017733485939	0.61675401906176
4.8961694920790	0.61675449308185
4.8905784339315	0.61675498056814
4.8850001303569	0.61675548123696
4.8794345377604	0.61675599479892
4.8738816127459	0.61675652095903
4.8683413121143	0.61675705941682
4.8628135928629	0.61675760986640
4.8572984121841	0.61675817199660
4.8517957274640	0.61675874549107
4.8463054962819	0.61675933002837
4.8408276764088	0.61675992528211
4.8353622258065	0.61676053092105
