#Parameters = {thARC=0.2; nARC=2.5; thsub=1; p=1; nSub=4.25}
#"Wavelength / um"	"T (740) [Real Part]"
#---------------------------------------
14.989622900000	0.62654354397572
14.937342202292	0.62666275407394
14.885424925521	0.62678068979826
14.833867293419	0.62689737201667
14.782665581854	0.62701282151749
14.731816117936	0.62712705900724
14.681315279138	0.62724010510852
14.631159492435	0.62735198035803
14.581345233463	0.62746270520445
14.531869025691	0.62757230000652
14.482727439614	0.62768078503105
14.433917091960	0.62778818045103
14.385434644914	0.62789450634370
14.337276805356	0.62799978268878
14.289440324118	0.62810402936658
14.241921995249	0.62820726615625
14.194718655303	0.62830951273408
14.147827182633	0.62841078867170
14.101244496707	0.62851111343452
14.054967557431	0.62861050638001
14.008993364486	0.62870898675613
13.963318956684	0.62880657369976
13.917941411328	0.62890328623518
13.872857843591	0.62899914327256
13.828065405904	0.62909416360648
13.783561287356	0.62918836591456
13.739342713107	0.62928176875601
13.695406943810	0.62937439057029
13.651751275046	0.62946624967582
13.608373036768	0.62955736426864
13.565269592760	0.62964775242116
13.522438340099	0.62973743208099
13.479876708633	0.62982642106969
13.437582160466	0.62991473708167
13.395552189455	0.63000239768301
13.353784320713	0.63008942031042
13.312276110124	0.63017582227019
13.271025143869	0.63026162073712
13.230029037952	0.63034683275357
13.189285437747	0.63043147522851
13.148792017544	0.63051556493657
13.108546480105	0.63059911851716
13.068546556234	0.63068215247361
13.028790004346	0.63076468317236
12.989274610052	0.63084672684213
12.949998185745	0.63092829957318
12.910958570198	0.63100941731656
12.872153628167	0.63109009588343
12.833581250000	0.63117035094436
12.795239351259	0.63125019802871
12.757125872340	0.63132965252400
12.719238778108	0.63140872967536
12.681576057530	0.63148744458492
12.644135723323	0.63156581221136
12.606915811606	0.63164384736935
12.569914381551	0.63172156472911
12.533129515050	0.63179897881601
12.496559316382	0.63187610401008
12.460201911887	0.63195295454573
12.424055449648	0.63202954451130
12.388118099174	0.63210588784880
12.352388051092	0.63218199835361
12.316863516845	0.63225788967415
12.281542728390	0.63233357531172
12.246423937908	0.63240906862022
12.211505417515	0.63248438280598
12.176785458976	0.63255953092759
12.142262373431	0.63263452589578
12.107934491115	0.63270938047327
12.073800161095	0.63278410727470
12.039857751004	0.63285871876657
12.006105646776	0.63293322726720
11.972542252396	0.63300764494668
11.939165989646	0.63308198382693
11.905975297855	0.63315625578168
11.872968633663	0.63323047253657
11.840144470774	0.63330464566917
11.807501299724	0.63337878660914
11.775037627651	0.63345290663831
11.742751978065	0.63352701689086
11.710642890625	0.63360112835342
11.678708920919	0.63367525186534
11.646948640249	0.63374939811885
11.615360635413	0.63382357765927
11.583943508501	0.63389780088531
11.552695876686	0.63397207804931
11.521616372022	0.63404641925754
11.490703641242	0.63412083447050
11.459956345566	0.63419533350324
11.429373160503	0.63426992602574
11.398952775665	0.63434462156324
11.368693894577	0.63441942949667
11.338595234493	0.63449435906299
11.308655526217	0.63456941935567
11.278873513920	0.63464461932510
11.249247954972	0.63471996777905
11.219777619760	0.63479547338316
11.190461291527	0.63487114466138
11.161297766195	0.63494698999656
11.132285852209	0.63502301763088
11.103424370370	0.63509923566647
11.074712153676	0.63517565206591
11.046148047163	0.63525227465282
11.017730907755	0.63532911111244
10.989459604106	0.63540616899224
10.961333016453	0.63548345570253
10.933350036470	0.63556097851708
10.905509567115	0.63563874457378
10.877810522496	0.63571676087527
10.850251827723	0.63579503428963
10.822832418773	0.63587357155106
10.795551242348	0.63595237926059
10.768407255747	0.63603146388675
10.741399426729	0.63611083176633
10.714526733381	0.63619048910510
10.687788163993	0.63627044197853
10.661182716927	0.63635069633261
10.634709400497	0.63643125798455
10.608367232838	0.63651213262359
10.582155241793	0.63659332581182
10.556072464789	0.63667484298490
10.530117948718	0.63675668945297
10.504290749825	0.63683887040139
10.478589933590	0.63692139089163
10.453014574616	0.63700425586208
10.427563756522	0.63708747012890
10.402236571825	0.63717103838688
10.377032121841	0.63725496521035
10.351949516575	0.63733925505400
10.326987874612	0.63742391225378
10.302146323024	0.63750894102784
10.277423997257	0.63759434547737
10.252820041040	0.63768012958754
10.228333606278	0.63776629722843
10.203963852961	0.63785285215594
10.179709949066	0.63793979801271
10.155571070461	0.63802713832909
10.131546400811	0.63811487652406
10.107635131490	0.63820301590620
10.083836461487	0.63829155967465
10.060149597315	0.63838051092004
10.036573752929	0.63846987262551
10.013108149633	0.63855964766768
9.9897520159947	0.63864983881758
9.9665045877660	0.63874044874170
9.9433651077944	0.63883148000296
9.9203328259431	0.63892293506170
9.8974069990096	0.63901481627669
9.8745868906456	0.63910712590613
9.8518717712783	0.63919986610866
9.8292609180328	0.63929303894442
9.8067536146549	0.63938664637598
9.7843491514360	0.63948069026945
9.7620468251384	0.63957517239545
9.7398459389214	0.63967009443017
9.7177458022690	0.63976545795639
9.6957457309185	0.63986126446453
9.6738450467893	0.63995751535367
9.6520430779137	0.64005421193259
9.6303391583681	0.64015135542085
9.6087326282051	0.64024894694978
9.5872228333866	0.64034698756359
9.5658091257179	0.64044547822038
9.5444908627826	0.64054441979319
9.5232674078780	0.64064381307108
9.5021381299525	0.64074365876018
9.4811024035421	0.64084395748472
9.4601596087094	0.64094470978813
9.4393091309824	0.64104591613407
9.4185503612944	0.64114757690748
9.3978826959248	0.64124969241569
9.3773055364404	0.64135226288943
9.3568182896380	0.64145528848391
9.3364203674868	0.64155876927990
9.3161111870727	0.64166270528475
9.2958901705426	0.64176709643351
9.2757567450495	0.64187194258993
9.2557103426984	0.64197724354758
9.2357504004929	0.64208299903086
9.2158763602828	0.64218920869610
9.1960876687117	0.64229587213259
9.1763837771656	0.64240298886366
9.1567641417227	0.64251055834773
9.1372282231027	0.64261857997936
9.1177754866180	0.64272705309033
9.0984054021244	0.64283597695065
9.0791174439733	0.64294535076968
9.0599110909640	0.64305517369710
9.0407858262967	0.64316544482401
9.0217411375263	0.64327616318398
9.0027765165165	0.64338732775408
8.9838914593947	0.64349893745591
8.9650854665072	0.64361099115666
8.9463580423754	0.64372348767015
8.9277086956522	0.64383642575787
8.9091369390788	0.64394980412998
8.8906422894425	0.64406362144637
8.8722242675348	0.64417787631768
8.8538823981099	0.64429256730634
8.8356162098438	0.64440769292756
8.8174252352941	0.64452325165037
8.7993090108600	0.64463924189861
8.7812670767428	0.64475566205200
8.7632989769073	0.64487251044707
8.7454042590432	0.64498978537822
8.7275824745269	0.64510748509871
8.7098331783847	0.64522560782163
8.6921559292549	0.64534415172093
8.6745502893519	0.64546311493238
8.6570158244297	0.64558249555456
8.6395521037464	0.64570229164986
8.6221587000288	0.64582250124542
8.6048351894374	0.64594312233415
8.5875811515325	0.64606415287563
8.5703961692396	0.64618559079716
8.5532798288160	0.64630743399462
8.5362317198178	0.64642968033350
8.5192514350668	0.64655232764980
8.5023385706183	0.64667537375100
8.4854927257288	0.64679881641700
8.4687135028249	0.64692265340101
8.4520005074711	0.64704688243054
8.4353533483399	0.64717150120825
8.4187716371806	0.64729650741294
8.4022549887892	0.64742189870041
8.3858030209790	0.64754767270438
8.3694153545505	0.64767382703739
8.3530916132627	0.64780035929170
8.3368314238042	0.64792726704015
8.3206344157646	0.64805454783709
8.3045002216066	0.64818219921921
8.2884284766381	0.64831021870643
8.2724188189845	0.64843860380277
8.2564708895621	0.64856735199717
8.2405843320506	0.64869646076441
8.2247587928669	0.64882592756589
8.2089939211391	0.64895574985048
8.1932893686800	0.64908592505539
8.1776447899618	0.64921645060695
8.1620598420909	0.64934732392145
8.1465341847826	0.64947854240595
8.1310674803363	0.64961010345908
8.1156593936113	0.64974200447184
8.1003095920022	0.64987424282839
8.0850177454153	0.65000681590684
8.0697835262450	0.65013972108001
8.0546066093498	0.65027295571623
8.0394866720300	0.65040651718006
8.0244233940043	0.65054040283310
8.0094164573871	0.65067461003469
7.9944655466667	0.65080913614266
7.9795703486825	0.65094397851409
7.9647305526036	0.65107913450602
7.9499458499072	0.65121460147614
7.9352159343568	0.65135037678356
7.9205405019815	0.65148645778946
7.9059192510549	0.65162284185781
7.8913518820742	0.65175952635606
7.8768380977404	0.65189650865582
7.8623776029373	0.65203378613352
7.8479701047120	0.65217135617107
7.8336153122550	0.65230921615655
7.8193129368805	0.65244736348483
7.8050626920073	0.65258579555821
7.7908642931393	0.65272450978707
7.7767174578470	0.65286350359049
7.7626219057483	0.65300277439685
7.7485773584906	0.65314231964447
7.7345835397317	0.65328213678217
7.7206401751223	0.65342222326991
7.7067469922879	0.65356257657931
7.6929037208109	0.65370319419432
7.6791100922131	0.65384407361167
7.6653658399386	0.65398521234155
7.6516706993364	0.65412660790805
7.6380244076433	0.65426825784978
7.6244267039674	0.65441015972039
7.6108773292714	0.65455231108905
7.5973760263558	0.65469470954104
7.5839225398432	0.65483735267819
7.5705166161616	0.65498023811942
7.5571580035291	0.65512336350123
7.5438464519376	0.65526672647816
7.5305817131374	0.65541032472329
7.5173635406219	0.65555415592870
7.5041916896120	0.65569821780590
7.4910659170415	0.65584250808632
7.4779859815415	0.65598702452173
7.4649516434263	0.65613176488468
7.4519626646781	0.65627672696890
7.4390188089330	0.65642190858973
7.4261198414664	0.65656730758455
7.4132655291790	0.65671292181313
7.4004556405826	0.65685874915805
7.3876899457861	0.65700478752505
7.3749682164822	0.65715103484346
7.3622902259332	0.65729748906649
7.3496557489581	0.65744414817162
7.3370645619187	0.65759101016096
7.3245164427071	0.65773807306155
7.3120111707317	0.65788533492570
7.2995485269053	0.65803279383134
7.2871282936315	0.65818044788226
7.2747502547925	0.65832829520848
7.2624141957364	0.65847633396652
7.2501199032648	0.65862456233966
7.2378671656205	0.65877297853824
7.2256557724753	0.65892158079994
7.2134855149182	0.65907036738998
7.2013561854432	0.65921933660144
7.1892675779376	0.65936848675546
7.1772194876706	0.65951781620146
7.1652117112811	0.65966732331740
7.1532440467669	0.65981700650998
7.1413162934731	0.65996686421482
7.1294282520809	0.66011689489671
7.1175797245964	0.66026709704974
7.1057705143399	0.66041746919753
7.0940004259347	0.66056800989337
7.0822692652965	0.66071871772039
7.0705768396226	0.66086959129173
7.0589229573817	0.66102062925067
7.0473074283028	0.66117183027077
7.0357300633654	0.66132319305601
7.0241906747891	0.66147471634089
7.0126890760234	0.66162639889057
7.0012250817375	0.66177823950096
6.9897985078107	0.66193023699883
6.9784091713222	0.66208239024185
6.9670568905415	0.66223469811875
6.9557414849188	0.66238715954933
6.9444627750753	0.66253977348452
6.9332205827937	0.66269253890650
6.9220147310090	0.66284545482868
6.9108450437990	0.66299852029578
6.8997113463751	0.66315173438382
6.8886134650735	0.66330509620020
6.8775512273457	0.66345860488369
6.8665244617499	0.66361225960441
6.8555329979419	0.66376605956386
6.8445766666667	0.66392000399494
6.8336552997493	0.66407409216187
6.8227687300865	0.66422832336021
6.8119167916383	0.66438269691683
6.8010993194192	0.66453721218985
6.7903161494904	0.66469186856862
6.7795671189507	0.66484666547364
6.7688520659291	0.66500160235653
6.7581708295762	0.66515667869995
6.7475232500563	0.66531189401750
6.7369091685393	0.66546724785368
6.7263284271932	0.66562273978378
6.7157808691756	0.66577836941379
6.7052663386267	0.66593413638028
6.6947846806610	0.66609004035031
6.6843357413601	0.66624608102132
6.6739193677649	0.66640225812096
6.6635354078684	0.66655857140703
6.6531837106081	0.66671502066727
6.6428641258586	0.66687160571928
6.6325765044248	0.66702832641031
6.6223206980340	0.66718518261715
6.6120965593295	0.66734217424596
6.6019039418630	0.66749930123207
6.5917427000879	0.66765656353983
6.5816126893524	0.66781396116241
6.5715137658922	0.66797149412164
6.5614457868243	0.66812916246780
6.5514086101399	0.66828696627938
6.5414020946978	0.66844490566296
6.5314261002179	0.66860298075290
6.5214804872743	0.66876119171120
6.5115651172893	0.66891953872724
6.5016798525266	0.66907802201753
6.4918245560849	0.66923664182554
6.4819990918919	0.66939539842137
6.4722033246978	0.66955429210160
6.4624371200690	0.66971332318895
6.4527003443823	0.66987249203209
6.4429928648184	0.67003179900533
6.4333145493562	0.67019124450839
6.4236652667667	0.67035082896611
6.4140448866068	0.67051055282815
6.4044532792138	0.67067041656877
6.3948903156997	0.67083042068648
6.3853558679446	0.67099056570378
6.3758498085921	0.67115085216685
6.3663720110427	0.67131128064527
6.3569223494487	0.67147185173168
6.3475006987084	0.67163256604152
6.3381069344609	0.67179342421268
6.3287409330800	0.67195442690517
6.3194025716695	0.67211557480083
6.3100917280572	0.67227686860301
6.3008082807902	0.67243830903619
6.2915521091291	0.67259989684570
6.2823230930427	0.67276163279737
6.2731211132036	0.67292351767714
6.2639460509820	0.67308555229079
6.2547977884415	0.67324773746356
6.2456762083333	0.67341007403976
6.2365811940919	0.67357256288248
6.2275126298297	0.67373520487319
6.2184704003319	0.67389800091140
6.2094543910522	0.67406095191428
6.2004644881075	0.67422405881628
6.1915005782734	0.67438732256882
6.1825625489792	0.67455074413985
6.1736502883031	0.67471432451349
6.1647636849681	0.67487806468969
6.1559026283368	0.67504196568381
6.1470670084068	0.67520602852624
6.1382567158067	0.67537025426204
6.1294716417910	0.67553464395054
6.1207116782360	0.67569919866492
6.1119767176351	0.67586391949188
6.1032666530945	0.67602880753119
6.0945813783289	0.67619386389533
6.0859207876573	0.67635908970906
6.0772847759984	0.67652448610908
6.0686732388664	0.67669005424355
6.0600860723671	0.67685579527176
6.0515231731934	0.67702171036368
6.0429844386212	0.67718780069959
6.0344697665056	0.67735406746964
6.0259790552764	0.67752051187348
6.0175122039342	0.67768713511982
6.0090691120465	0.67785393842604
6.0006496797438	0.67802092301777
5.9922538077154	0.67818809012851
5.9838813972056	0.67835544099916
5.9755323500100	0.67852297687769
5.9672065684713	0.67869069901864
5.9589039554760	0.67885860868279
5.9506244144502	0.67902670713668
5.9423678493558	0.67919499565224
5.9341341646873	0.67936347550639
5.9259232654675	0.67953214798056
5.9177350572444	0.67970101436036
5.9095694460871	0.67987007593510
5.9014263385827	0.68003933399744
5.8933056418321	0.68020878984292
5.8852072634472	0.68037844476958
5.8771311115468	0.68054830007758
5.8690770947533	0.68071835706871
5.8610451221896	0.68088861704605
5.8530351034752	0.68105908131356
5.8450469487229	0.68122975117562
5.8370805685358	0.68140062793667
5.8291358740035	0.68157171290081
5.8212127766990	0.68174300737136
5.8133111886756	0.68191451265047
5.8054310224632	0.68208623003875
5.7975721910656	0.68225816083484
5.7897346079567	0.68243030633499
5.7819181870781	0.68260266783273
5.7741228428351	0.68277524661842
5.7663484900942	0.68294804397888
5.7585950441798	0.68312106119697
5.7508624208709	0.68329429955125
5.7431505363985	0.68346776031556
5.7354593074421	0.68364144475864
5.7277886511272	0.68381535414374
5.7201384850219	0.68398948972825
5.7125087271341	0.68416385276334
5.7048992959087	0.68433844449354
5.6973101102242	0.68451326615639
5.6897410893908	0.68468831898208
5.6821921531463	0.68486360419308
5.6746632216544	0.68503912300374
5.6671542155009	0.68521487661997
5.6596650556919	0.68539086623887
5.6521956636501	0.68556709304835
5.6447459612126	0.68574355822681
5.6373158706281	0.68592026294275
5.6299053145540	0.68609720835447
5.6225142160540	0.68627439560969
5.6151424985952	0.68645182584522
5.6077900860456	0.68662950018663
5.6004569026714	0.68680741974789
5.5931428731343	0.68698558563107
5.5858479224893	0.68716399892602
5.5785719761816	0.68734266071000
5.5713149600446	0.68752157204740
5.5640768002970	0.68770073398941
5.5568574235403	0.68788014757373
5.5496567567568	0.68805981382422
5.5424747273063	0.68823973375063
5.5353112629247	0.68841990834829
5.5281662917204	0.68860033859782
5.5210397421731	0.68878102546482
5.5139315431304	0.68896196989961
5.5068416238060	0.68914317283693
5.4997699137773	0.68932463519565
5.4927163429828	0.68950635787853
5.4856808417200	0.68968834177192
5.4786633406433	0.68987058774551
5.4716637707611	0.69005309665207
5.4646820634342	0.69023586932717
5.4577181503732	0.69041890658897
5.4507719636364	0.69060220923794
5.4438434356274	0.69078577805662
5.4369324990932	0.69096961380943
5.4300390871219	0.69115371724236
5.4231631331404	0.69133808908280
5.4163045709124	0.69152273003930
5.4094633345363	0.69170764080137
5.4026393584430	0.69189282203923
5.3958325773938	0.69207827440365
5.3890429264785	0.69226399852570
5.3822703411131	0.69244999501660
5.3755147570378	0.69263626446749
5.3687761103152	0.69282280744929
5.3620543373278	0.69300962451246
5.3553493747767	0.69319671618687
5.3486611596789	0.69338408298162
5.3419896293656	0.69357172538487
5.3353347214807	0.69375964386369
5.3286963739780	0.69394783886389
5.3220745251198	0.69413631080989
5.3154691134752	0.69432506010457
5.3088800779175	0.69451408712914
5.3023073576229	0.69470339224300
5.2957508920685	0.69489297578362
5.2892106210303	0.69508283806642
5.2826864845815	0.69527297938466
5.2761784230905	0.69546340000933
5.2696863772192	0.69565410018904
5.2632102879213	0.69584508014994
5.2567500964405	0.69603634009562
5.2503057443082	0.69622788020701
5.2438771733427	0.69641970064235
5.2374643256464	0.69661180153705
5.2310671436050	0.69680418300369
5.2246855698850	0.69699684513191
5.2183195474326	0.69718978798837
5.2119690194715	0.69738301161671
5.2056339295016	0.69757651603751
5.1993142212973	0.69777030124824
5.1930098389052	0.69796436722323
5.1867207266436	0.69815871391365
5.1804468290997	0.69835334124749
5.1741880911288	0.69854824912955
5.1679444578521	0.69874343744144
5.1617158746556	0.69893890604156
5.1555022871883	0.69913465476512
5.1493036413604	0.69933068342415
5.1431198833419	0.69952699180751
5.1369509595613	0.69972357968093
5.1307968167037	0.69992044678702
5.1246574017094	0.70011759284533
5.1185326617722	0.70031501755235
5.1124225443383	0.70051272058162
5.1063269971044	0.70071070158373
5.1002459680163	0.70090896018640
5.0941794052676	0.70110749599456
5.0881272572980	0.70130630859040
5.0820894727920	0.70150539753346
5.0760660006773	0.70170476236071
5.0700567901235	0.70190440258664
5.0640617905405	0.70210431770338
5.0580809515775	0.70230450718075
5.0521142231210	0.70250497046642
5.0461615552937	0.70270570698601
5.0402228984533	0.70290671614320
5.0342982031906	0.70310799731985
5.0283874203287	0.70330954987616
5.0224905009214	0.70351137315080
5.0166073962517	0.70371346646102
5.0107380578305	0.70391582910284
5.0048824373957	0.70411846035121
4.9990404869101	0.70432135946013
4.9932121585610	0.70452452566285
4.9873974047579	0.70472795817205
4.9815961781323	0.70493165617997
4.9758084315353	0.70513561885868
4.9700341180371	0.70533984536016
4.9642731909256	0.70554433481660
4.9585256037049	0.70574908634054
4.9527913100942	0.70595409902510
4.9470702640264	0.70615937194417
4.9413624196473	0.70636490415266
4.9356677313138	0.70657069468670
4.9299861535932	0.70677674256389
4.9243176412615	0.70698304678352
4.9186621493027	0.70718960632678
4.9130196329072	0.70739642015708
4.9073900474709	0.70760348722023
4.9017733485939	0.70781080644474
4.8961694920790	0.70801837674203
4.8905784339315	0.70822619700677
4.8850001303569	0.70843426611708
4.8794345377604	0.70864258293485
4.8738816127459	0.70885114630600
4.8683413121143	0.70905995506077
4.8628135928629	0.70926900801402
4.8572984121841	0.70947830396550
4.8517957274640	0.70968784170018
4.8463054962819	0.70989761998855
4.8408276764088	0.71010763758691
4.8353622258065	0.71031789323769
