#Parameters = {thARC=0.2; nARC=1.75; thsub=1; p=1; nSub=1.25}
#"Wavelength / um"	"T (74) [Real Part]"
#--------------------------------------
14.989622900000	0.98346070883728
14.937342202292	0.98344921770761
14.885424925521	0.98343731597758
14.833867293419	0.98342500649193
14.782665581854	0.98341229208434
14.731816117936	0.98339917557750
14.681315279138	0.98338565978297
14.631159492435	0.98337174750122
14.581345233463	0.98335744152160
14.531869025691	0.98334274462227
14.482727439614	0.98332765957021
14.433917091960	0.98331218912117
14.385434644914	0.98329633601967
14.337276805356	0.98328010299892
14.289440324118	0.98326349278085
14.241921995249	0.98324650807608
14.194718655303	0.98322915158385
14.147827182633	0.98321142599203
14.101244496707	0.98319333397712
14.054967557431	0.98317487820416
14.008993364486	0.98315606132676
13.963318956684	0.98313688598708
13.917941411328	0.98311735481577
13.872857843591	0.98309747043199
13.828065405904	0.98307723544336
13.783561287356	0.98305665244595
13.739342713107	0.98303572402428
13.695406943810	0.98301445275128
13.651751275046	0.98299284118825
13.608373036768	0.98297089188492
13.565269592760	0.98294860737933
13.522438340099	0.98292599019791
13.479876708633	0.98290304285539
13.437582160466	0.98287976785483
13.395552189455	0.98285616768759
13.353784320713	0.98283224483332
13.312276110124	0.98280800175994
13.271025143869	0.98278344092362
13.230029037952	0.98275856476879
13.189285437747	0.98273337572811
13.148792017544	0.98270787622247
13.108546480105	0.98268206866097
13.068546556234	0.98265595544091
13.028790004346	0.98262953894778
12.989274610052	0.98260282155526
12.949998185745	0.98257580562520
12.910958570198	0.98254849350763
12.872153628167	0.98252088754071
12.833581250000	0.98249299005078
12.795239351259	0.98246480335229
12.757125872340	0.98243632974787
12.719238778108	0.98240757152825
12.681576057530	0.98237853097229
12.644135723323	0.98234921034698
12.606915811606	0.98231961190742
12.569914381551	0.98228973789682
12.533129515050	0.98225959054652
12.496559316382	0.98222917207594
12.460201911887	0.98219848469260
12.424055449648	0.98216753059216
12.388118099174	0.98213631195834
12.352388051092	0.98210483096298
12.316863516845	0.98207308976601
12.281542728390	0.98204109051547
12.246423937908	0.98200883534747
12.211505417515	0.98197632638625
12.176785458976	0.98194356574414
12.142262373431	0.98191055552157
12.107934491115	0.98187729780707
12.073800161095	0.98184379467729
12.039857751004	0.98181004819698
12.006105646776	0.98177606041900
11.972542252396	0.98174183338434
11.939165989646	0.98170736912209
11.905975297855	0.98167266964950
11.872968633663	0.98163773697192
11.840144470774	0.98160257308285
11.807501299724	0.98156717996393
11.775037627651	0.98153155958496
11.742751978065	0.98149571390388
11.710642890625	0.98145964486681
11.678708920919	0.98142335440803
11.646948640249	0.98138684445002
11.615360635413	0.98135011690341
11.583943508501	0.98131317366707
11.552695876686	0.98127601662805
11.521616372022	0.98123864766162
11.490703641242	0.98120106863130
11.459956345566	0.98116328138882
11.429373160503	0.98112528777417
11.398952775665	0.98108708961560
11.368693894577	0.98104868872963
11.338595234493	0.98101008692107
11.308655526217	0.98097128598302
11.278873513920	0.98093228769689
11.249247954972	0.98089309383242
11.219777619760	0.98085370614769
11.190461291527	0.98081412638911
11.161297766195	0.98077435629148
11.132285852209	0.98073439757797
11.103424370370	0.98069425196014
11.074712153676	0.98065392113797
11.046148047163	0.98061340679987
11.017730907755	0.98057271062268
10.989459604106	0.98053183427171
10.961333016453	0.98049077940074
10.933350036470	0.98044954765207
10.905509567115	0.98040814065647
10.877810522496	0.98036656003328
10.850251827723	0.98032480739036
10.822832418773	0.98028288432417
10.795551242348	0.98024079241971
10.768407255747	0.98019853325064
10.741399426729	0.98015610837920
10.714526733381	0.98011351935631
10.687788163993	0.98007076772153
10.661182716927	0.98002785500313
10.634709400497	0.97998478271809
10.608367232838	0.97994155237208
10.582155241793	0.97989816545958
10.556072464789	0.97985462346381
10.530117948718	0.97981092785678
10.504290749825	0.97976708009934
10.478589933590	0.97972308164117
10.453014574616	0.97967893392083
10.427563756522	0.97963463836574
10.402236571825	0.97959019639227
10.377032121841	0.97954560940570
10.351949516575	0.97950087880028
10.326987874612	0.97945600595925
10.302146323024	0.97941099225486
10.277423997257	0.97936583904839
10.252820041040	0.97932054769020
10.228333606278	0.97927511951972
10.203963852961	0.97922955586551
10.179709949066	0.97918385804526
10.155571070461	0.97913802736584
10.131546400811	0.97909206512331
10.107635131490	0.97904597260295
10.083836461487	0.97899975107929
10.060149597315	0.97895340181615
10.036573752929	0.97890692606665
10.013108149633	0.97886032507324
9.9897520159947	0.97881360006775
9.9665045877660	0.97876675227138
9.9433651077944	0.97871978289477
9.9203328259431	0.97867269313801
9.8974069990096	0.97862548419066
9.8745868906456	0.97857815723181
9.8518717712783	0.97853071343008
9.8292609180328	0.97848315394365
9.8067536146549	0.97843547992034
9.7843491514360	0.97838769249755
9.7620468251384	0.97833979280241
9.7398459389214	0.97829178195169
9.7177458022690	0.97824366105191
9.6957457309185	0.97819543119936
9.6738450467893	0.97814709348012
9.6520430779137	0.97809864897007
9.6303391583681	0.97805009873497
9.6087326282051	0.97800144383047
9.5872228333866	0.97795268530214
9.5658091257179	0.97790382418549
9.5444908627826	0.97785486150605
9.5232674078780	0.97780579827935
9.5021381299525	0.97775663551098
9.4811024035421	0.97770737419663
9.4601596087094	0.97765801532211
9.4393091309824	0.97760855986339
9.4185503612944	0.97755900878664
9.3978826959248	0.97750936304824
9.3773055364404	0.97745962359487
9.3568182896380	0.97740979136348
9.3364203674868	0.97735986728137
9.3161111870727	0.97730985226619
9.2958901705426	0.97725974722603
9.2757567450495	0.97720955305940
9.2557103426984	0.97715927065530
9.2357504004929	0.97710890089323
9.2158763602828	0.97705844464325
9.1960876687117	0.97700790276603
9.1763837771656	0.97695727611282
9.1567641417227	0.97690656552559
9.1372282231027	0.97685577183695
9.1177754866180	0.97680489587029
9.0984054021244	0.97675393843976
9.0791174439733	0.97670290035033
9.0599110909640	0.97665178239781
9.0407858262967	0.97660058536890
9.0217411375263	0.97654931004123
9.0027765165165	0.97649795718340
8.9838914593947	0.97644652755502
8.9650854665072	0.97639502190671
8.9463580423754	0.97634344098020
8.9277086956522	0.97629178550834
8.9091369390788	0.97624005621514
8.8906422894425	0.97618825381578
8.8722242675348	0.97613637901671
8.8538823981099	0.97608443251566
8.8356162098438	0.97603241500164
8.8174252352941	0.97598032715506
8.7993090108600	0.97592816964770
8.7812670767428	0.97587594314279
8.7632989769073	0.97582364829503
8.7454042590432	0.97577128575063
8.7275824745269	0.97571885614739
8.7098331783847	0.97566636011467
8.6921559292549	0.97561379827349
8.6745502893519	0.97556117123654
8.6570158244297	0.97550847960825
8.6395521037464	0.97545572398478
8.6221587000288	0.97540290495413
8.6048351894374	0.97535002309612
8.5875811515325	0.97529707898245
8.5703961692396	0.97524407317677
8.5532798288160	0.97519100623469
8.5362317198178	0.97513787870382
8.5192514350668	0.97508469112383
8.5023385706183	0.97503144402648
8.4854927257288	0.97497813793568
8.4687135028249	0.97492477336749
8.4520005074711	0.97487135083023
8.4353533483399	0.97481787082444
8.4187716371806	0.97476433384299
8.4022549887892	0.97471074037110
8.3858030209790	0.97465709088635
8.3694153545505	0.97460338585879
8.3530916132627	0.97454962575092
8.3368314238042	0.97449581101776
8.3206344157646	0.97444194210691
8.3045002216066	0.97438801945854
8.2884284766381	0.97433404350549
8.2724188189845	0.97428001467328
8.2564708895621	0.97422593338017
8.2405843320506	0.97417180003719
8.2247587928669	0.97411761504818
8.2089939211391	0.97406337880985
8.1932893686800	0.97400909171182
8.1776447899618	0.97395475413666
8.1620598420909	0.97390036645991
8.1465341847826	0.97384592905016
8.1310674803363	0.97379144226910
8.1156593936113	0.97373690647150
8.1003095920022	0.97368232200533
8.0850177454153	0.97362768921176
8.0697835262450	0.97357300842520
8.0546066093498	0.97351827997339
8.0394866720300	0.97346350417737
8.0244233940043	0.97340868135159
8.0094164573871	0.97335381180393
7.9944655466667	0.97329889583575
7.9795703486825	0.97324393374190
7.9647305526036	0.97318892581081
7.9499458499072	0.97313387232451
7.9352159343568	0.97307877355870
7.9205405019815	0.97302362978274
7.9059192510549	0.97296844125974
7.8913518820742	0.97291320824661
7.8768380977404	0.97285793099406
7.8623776029373	0.97280260974669
7.8479701047120	0.97274724474300
7.8336153122550	0.97269183621546
7.8193129368805	0.97263638439054
7.8050626920073	0.97258088948876
7.7908642931393	0.97252535172471
7.7767174578470	0.97246977130716
7.7626219057483	0.97241414843903
7.7485773584906	0.97235848331746
7.7345835397317	0.97230277613388
7.7206401751223	0.97224702707402
7.7067469922879	0.97219123631797
7.6929037208109	0.97213540404023
7.6791100922131	0.97207953040973
7.6653658399386	0.97202361558992
7.6516706993364	0.97196765973876
7.6380244076433	0.97191166300880
7.6244267039674	0.97185562554721
7.6108773292714	0.97179954749584
7.5973760263558	0.97174342899123
7.5839225398432	0.97168727016471
7.5705166161616	0.97163107114238
7.5571580035291	0.97157483204521
7.5438464519376	0.97151855298906
7.5305817131374	0.97146223408470
7.5173635406219	0.97140587543790
7.5041916896120	0.97134947714945
7.4910659170415	0.97129303931522
7.4779859815415	0.97123656202616
7.4649516434263	0.97118004536840
7.4519626646781	0.97112348942326
7.4390188089330	0.97106689426733
7.4261198414664	0.97101025997244
7.4132655291790	0.97095358660581
7.4004556405826	0.97089687422998
7.3876899457861	0.97084012290295
7.3749682164822	0.97078333267818
7.3622902259332	0.97072650360462
7.3496557489581	0.97066963572679
7.3370645619187	0.97061272908480
7.3245164427071	0.97055578371440
7.3120111707317	0.97049879964702
7.2995485269053	0.97044177690984
7.2871282936315	0.97038471552577
7.2747502547925	0.97032761551357
7.2624141957364	0.97027047688786
7.2501199032648	0.97021329965913
7.2378671656205	0.97015608383386
7.2256557724753	0.97009882941448
7.2134855149182	0.97004153639947
7.2013561854432	0.96998420478340
7.1892675779376	0.96992683455692
7.1772194876706	0.96986942570690
7.1652117112811	0.96981197821636
7.1532440467669	0.96975449206459
7.1413162934731	0.96969696722720
7.1294282520809	0.96963940367609
7.1175797245964	0.96958180137957
7.1057705143399	0.96952416030235
7.0940004259347	0.96946648040562
7.0822692652965	0.96940876164707
7.0705768396226	0.96935100398093
7.0589229573817	0.96929320735805
7.0473074283028	0.96923537172589
7.0357300633654	0.96917749702858
7.0241906747891	0.96911958320700
7.0126890760234	0.96906163019876
7.0012250817375	0.96900363793829
6.9897985078107	0.96894560635687
6.9784091713222	0.96888753538266
6.9670568905415	0.96882942494075
6.9557414849188	0.96877127495321
6.9444627750753	0.96871308533911
6.9332205827937	0.96865485601458
6.9220147310090	0.96859658689286
6.9108450437990	0.96853827788432
6.8997113463751	0.96847992889650
6.8886134650735	0.96842153983418
6.8775512273457	0.96836311059940
6.8665244617499	0.96830464109148
6.8555329979419	0.96824613120712
6.8445766666667	0.96818758084038
6.8336552997493	0.96812898988276
6.8227687300865	0.96807035822324
6.8119167916383	0.96801168574827
6.8010993194192	0.96795297234190
6.7903161494904	0.96789421788572
6.7795671189507	0.96783542225899
6.7688520659291	0.96777658533862
6.7581708295762	0.96771770699924
6.7475232500563	0.96765878711322
6.7369091685393	0.96759982555074
6.7263284271932	0.96754082217979
6.7157808691756	0.96748177686623
6.7052663386267	0.96742268947386
6.6947846806610	0.96736355986441
6.6843357413601	0.96730438789758
6.6739193677649	0.96724517343114
6.6635354078684	0.96718591632090
6.6531837106081	0.96712661642077
6.6428641258586	0.96706727358284
6.6325765044248	0.96700788765736
6.6223206980340	0.96694845849280
6.6120965593295	0.96688898593591
6.6019039418630	0.96682946983173
6.5917427000879	0.96676991002364
6.5816126893524	0.96671030635340
6.5715137658922	0.96665065866118
6.5614457868243	0.96659096678561
6.5514086101399	0.96653123056381
6.5414020946978	0.96647144983143
6.5314261002179	0.96641162442268
6.5214804872743	0.96635175417040
6.5115651172893	0.96629183890602
6.5016798525266	0.96623187845971
6.4918245560849	0.96617187266031
6.4819990918919	0.96611182133544
6.4722033246978	0.96605172431149
6.4624371200690	0.96599158141369
6.4527003443823	0.96593139246614
6.4429928648184	0.96587115729181
6.4333145493562	0.96581087571264
6.4236652667667	0.96575054754953
6.4140448866068	0.96569017262237
6.4044532792138	0.96562975075011
6.3948903156997	0.96556928175079
6.3853558679446	0.96550876544154
6.3758498085921	0.96544820163866
6.3663720110427	0.96538759015764
6.3569223494487	0.96532693081315
6.3475006987084	0.96526622341917
6.3381069344609	0.96520546778894
6.3287409330800	0.96514466373503
6.3194025716695	0.96508381106937
6.3100917280572	0.96502290960329
6.3008082807902	0.96496195914754
6.2915521091291	0.96490095951233
6.2823230930427	0.96483991050737
6.2731211132036	0.96477881194191
6.2639460509820	0.96471766362476
6.2547977884415	0.96465646536431
6.2456762083333	0.96459521696860
6.2365811940919	0.96453391824531
6.2275126298297	0.96447256900186
6.2184704003319	0.96441116904535
6.2094543910522	0.96434971818266
6.2004644881075	0.96428821622048
6.1915005782734	0.96422666296530
6.1825625489792	0.96416505822350
6.1736502883031	0.96410340180131
6.1647636849681	0.96404169350491
6.1559026283368	0.96397993314044
6.1470670084068	0.96391812051400
6.1382567158067	0.96385625543172
6.1294716417910	0.96379433769978
6.1207116782360	0.96373236712444
6.1119767176351	0.96367034351206
6.1032666530945	0.96360826666914
6.0945813783289	0.96354613640237
6.0859207876573	0.96348395251861
6.0772847759984	0.96342171482498
6.0686732388664	0.96335942312884
6.0600860723671	0.96329707723785
6.0515231731934	0.96323467695998
6.0429844386212	0.96317222210356
6.0344697665056	0.96310971247730
6.0259790552764	0.96304714789031
6.0175122039342	0.96298452815213
6.0090691120465	0.96292185307279
6.0006496797438	0.96285912246278
5.9922538077154	0.96279633613313
5.9838813972056	0.96273349389542
5.9755323500100	0.96267059556180
5.9672065684713	0.96260764094504
5.9589039554760	0.96254462985852
5.9506244144502	0.96248156211630
5.9423678493558	0.96241843753312
5.9341341646873	0.96235525592443
5.9259232654675	0.96229201710643
5.9177350572444	0.96222872089607
5.9095694460871	0.96216536711111
5.9014263385827	0.96210195557014
5.8933056418321	0.96203848609257
5.8852072634472	0.96197495849869
5.8771311115468	0.96191137260969
5.8690770947533	0.96184772824770
5.8610451221896	0.96178402523577
5.8530351034752	0.96172026339794
5.8450469487229	0.96165644255925
5.8370805685358	0.96159256254574
5.8291358740035	0.96152862318453
5.8212127766990	0.96146462430379
5.8133111886756	0.96140056573278
5.8054310224632	0.96133644730191
5.7975721910656	0.96127226884270
5.7897346079567	0.96120803018785
5.7819181870781	0.96114373117126
5.7741228428351	0.96107937162801
5.7663484900942	0.96101495139447
5.7585950441798	0.96095047030821
5.7508624208709	0.96088592820811
5.7431505363985	0.96082132493436
5.7354593074421	0.96075666032846
5.7277886511272	0.96069193423326
5.7201384850219	0.96062714649299
5.7125087271341	0.96056229695325
5.7048992959087	0.96049738546106
5.6973101102242	0.96043241186489
5.6897410893908	0.96036737601462
5.6821921531463	0.96030227776166
5.6746632216544	0.96023711695886
5.6671542155009	0.96017189346063
5.6596650556919	0.96010660712288
5.6521956636501	0.96004125780308
5.6447459612126	0.95997584536030
5.6373158706281	0.95991036965517
5.6299053145540	0.95984483054995
5.6225142160540	0.95977922790852
5.6151424985952	0.95971356159643
5.6077900860456	0.95964783148088
5.6004569026714	0.95958203743075
5.5931428731343	0.95951617931664
5.5858479224893	0.95945025701087
5.5785719761816	0.95938427038750
5.5713149600446	0.95931821932235
5.5640768002970	0.95925210369300
5.5568574235403	0.95918592337883
5.5496567567568	0.95911967826104
5.5424747273063	0.95905336822265
5.5353112629247	0.95898699314851
5.5281662917204	0.95892055292533
5.5210397421731	0.95885404744170
5.5139315431304	0.95878747658811
5.5068416238060	0.95872084025694
5.4997699137773	0.95865413834248
5.4927163429828	0.95858737074098
5.4856808417200	0.95852053735063
5.4786633406433	0.95845363807157
5.4716637707611	0.95838667280595
5.4646820634342	0.95831964145789
5.4577181503732	0.95825254393351
5.4507719636364	0.95818538014098
5.4438434356274	0.95811814999048
5.4369324990932	0.95805085339425
5.4300390871219	0.95798349026659
5.4231631331404	0.95791606052387
5.4163045709124	0.95784856408454
5.4094633345363	0.95778100086916
5.4026393584430	0.95771337080041
5.3958325773938	0.95764567380307
5.3890429264785	0.95757790980407
5.3822703411131	0.95751007873248
5.3755147570378	0.95744218051953
5.3687761103152	0.95737421509862
5.3620543373278	0.95730618240534
5.3553493747767	0.95723808237745
5.3486611596789	0.95716991495492
5.3419896293656	0.95710168007993
5.3353347214807	0.95703337769689
5.3286963739780	0.95696500775243
5.3220745251198	0.95689657019543
5.3154691134752	0.95682806497701
5.3088800779175	0.95675949205055
5.3023073576229	0.95669085137171
5.2957508920685	0.95662214289841
5.2892106210303	0.95655336659087
5.2826864845815	0.95648452241158
5.2761784230905	0.95641561032537
5.2696863772192	0.95634663029934
5.2632102879213	0.95627758230292
5.2567500964405	0.95620846630787
5.2503057443082	0.95613928228828
5.2438771733427	0.95607003022056
5.2374643256464	0.95600071008350
5.2310671436050	0.95593132185820
5.2246855698850	0.95586186552815
5.2183195474326	0.95579234107918
5.2119690194715	0.95572274849950
5.2056339295016	0.95565308777969
5.1993142212973	0.95558335891270
5.1930098389052	0.95551356189390
5.1867207266436	0.95544369672101
5.1804468290997	0.95537376339415
5.1741880911288	0.95530376191587
5.1679444578521	0.95523369229108
5.1617158746556	0.95516355452712
5.1555022871883	0.95509334863374
5.1493036413604	0.95502307462310
5.1431198833419	0.95495273250977
5.1369509595613	0.95488232231076
5.1307968167037	0.95481184404548
5.1246574017094	0.95474129773578
5.1185326617722	0.95467068340592
5.1124225443383	0.95460000108262
5.1063269971044	0.95452925079501
5.1002459680163	0.95445843257466
5.0941794052676	0.95438754645557
5.0881272572980	0.95431659247419
5.0820894727920	0.95424557066938
5.0760660006773	0.95417448108247
5.0700567901235	0.95410332375721
5.0640617905405	0.95403209873980
5.0580809515775	0.95396080607887
5.0521142231210	0.95388944582550
5.0461615552937	0.95381801803319
5.0402228984533	0.95374652275790
5.0342982031906	0.95367496005801
5.0283874203287	0.95360332999436
5.0224905009214	0.95353163263020
5.0166073962517	0.95345986803123
5.0107380578305	0.95338803626558
5.0048824373957	0.95331613740381
4.9990404869101	0.95324417151890
4.9932121585610	0.95317213868627
4.9873974047579	0.95310003898376
4.9815961781323	0.95302787249163
4.9758084315353	0.95295563929256
4.9700341180371	0.95288333947164
4.9642731909256	0.95281097311637
4.9585256037049	0.95273854031667
4.9527913100942	0.95266604116487
4.9470702640264	0.95259347575566
4.9413624196473	0.95252084418619
4.9356677313138	0.95244814655594
4.9299861535932	0.95237538296681
4.9243176412615	0.95230255352308
4.9186621493027	0.95222965833139
4.9130196329072	0.95215669750079
4.9073900474709	0.95208367114265
4.9017733485939	0.95201057937072
4.8961694920790	0.95193742230112
4.8905784339315	0.95186420005229
4.8850001303569	0.95179091274503
4.8794345377604	0.95171756050248
4.8738816127459	0.95164414345008
4.8683413121143	0.95157066171562
4.8628135928629	0.95149711542920
4.8572984121841	0.95142350472322
4.8517957274640	0.95134982973237
4.8463054962819	0.95127609059364
4.8408276764088	0.95120228744632
4.8353622258065	0.95112842043195
