#Parameters = {thARC=0; nARC=3; thsub=1; p=1; nSub=4.25}
#"Wavelength / um"	"T (751) [Real Part]"
#---------------------------------------
14.989622900000	0.61677983186008
14.937342202292	0.61681435273716
14.885424925521	0.61684786500502
14.833867293419	0.61688038299110
14.782665581854	0.61691192094219
14.731816117936	0.61694249302352
14.681315279138	0.61697211331799
14.631159492435	0.61700079582527
14.581345233463	0.61702855446109
14.531869025691	0.61705540305642
14.482727439614	0.61708135535670
14.433917091960	0.61710642502116
14.385434644914	0.61713062562205
14.337276805356	0.61715397064397
14.289440324118	0.61717647348321
14.241921995249	0.61719814744706
14.194718655303	0.61721900575321
14.147827182633	0.61723906152911
14.101244496707	0.61725832781138
14.054967557431	0.61727681754525
14.008993364486	0.61729454358396
13.963318956684	0.61731151868828
13.917941411328	0.61732775552593
13.872857843591	0.61734326667114
13.828065405904	0.61735806460411
13.783561287356	0.61737216171057
13.739342713107	0.61738557028137
13.695406943810	0.61739830251198
13.651751275046	0.61741037050214
13.608373036768	0.61742178625545
13.565269592760	0.61743256167899
13.522438340099	0.61744270858299
13.479876708633	0.61745223868044
13.437582160466	0.61746116358683
13.395552189455	0.61746949481980
13.353784320713	0.61747724379891
13.312276110124	0.61748442184529
13.271025143869	0.61749104018146
13.230029037952	0.61749710993106
13.189285437747	0.61750264211863
13.148792017544	0.61750764766943
13.108546480105	0.61751213740922
13.068546556234	0.61751612206411
13.028790004346	0.61751961226043
12.989274610052	0.61752261852452
12.949998185745	0.61752515128269
12.910958570198	0.61752722086105
12.872153628167	0.61752883748544
12.833581250000	0.61753001128135
12.795239351259	0.61753075227387
12.757125872340	0.61753107038762
12.719238778108	0.61753097544673
12.681576057530	0.61753047717480
12.644135723323	0.61752958519495
12.606915811606	0.61752830902974
12.569914381551	0.61752665810129
12.533129515050	0.61752464173123
12.496559316382	0.61752226914083
12.460201911887	0.61751954945098
12.424055449648	0.61751649168234
12.388118099174	0.61751310475539
12.352388051092	0.61750939749055
12.316863516845	0.61750537860827
12.281542728390	0.61750105672918
12.246423937908	0.61749644037425
12.211505417515	0.61749153796488
12.176785458976	0.61748635782313
12.142262373431	0.61748090817185
12.107934491115	0.61747519713490
12.073800161095	0.61746923273734
12.039857751004	0.61746302290561
12.006105646776	0.61745657546782
11.972542252396	0.61744989815390
11.939165989646	0.61744299859592
11.905975297855	0.61743588432830
11.872968633663	0.61742856278807
11.840144470774	0.61742104131519
11.807501299724	0.61741332715280
11.775037627651	0.61740542744750
11.742751978065	0.61739734924971
11.710642890625	0.61738909951395
11.678708920919	0.61738068509916
11.646948640249	0.61737211276905
11.615360635413	0.61736338919245
11.583943508501	0.61735452094362
11.552695876686	0.61734551450269
11.521616372022	0.61733637625595
11.490703641242	0.61732711249627
11.459956345566	0.61731772942349
11.429373160503	0.61730823314480
11.398952775665	0.61729862967515
11.368693894577	0.61728892493768
11.338595234493	0.61727912476410
11.308655526217	0.61726923489515
11.278873513920	0.61725926098104
11.249247954972	0.61724920858186
11.219777619760	0.61723908316805
11.190461291527	0.61722889012086
11.161297766195	0.61721863473283
11.132285852209	0.61720832220820
11.103424370370	0.61719795766345
11.074712153676	0.61718754612777
11.046148047163	0.61717709254352
11.017730907755	0.61716660176677
10.989459604106	0.61715607856775
10.961333016453	0.61714552763143
10.933350036470	0.61713495355794
10.905509567115	0.61712436086320
10.877810522496	0.61711375397934
10.850251827723	0.61710313725531
10.822832418773	0.61709251495737
10.795551242348	0.61708189126964
10.768407255747	0.61707127029467
10.741399426729	0.61706065605397
10.714526733381	0.61705005248854
10.687788163993	0.61703946345950
10.661182716927	0.61702889274859
10.634709400497	0.61701834405876
10.608367232838	0.61700782101476
10.582155241793	0.61699732716369
10.556072464789	0.61698686597559
10.530117948718	0.61697644084406
10.504290749825	0.61696605508677
10.478589933590	0.61695571194615
10.453014574616	0.61694541458990
10.427563756522	0.61693516611164
10.402236571825	0.61692496953149
10.377032121841	0.61691482779670
10.351949516575	0.61690474378223
10.326987874612	0.61689472029136
10.302146323024	0.61688476005634
10.277423997257	0.61687486573898
10.252820041040	0.61686503993125
10.228333606278	0.61685528515595
10.203963852961	0.61684560386731
10.179709949066	0.61683599845160
10.155571070461	0.61682647122777
10.131546400811	0.61681702444811
10.107635131490	0.61680766029882
10.083836461487	0.61679838090071
10.060149597315	0.61678918830978
10.036573752929	0.61678008451791
10.013108149633	0.61677107145346
9.9897520159947	0.61676215098190
9.9665045877660	0.61675332490650
9.9433651077944	0.61674459496894
9.9203328259431	0.61673596284994
9.8974069990096	0.61672743016995
9.8745868906456	0.61671899848975
9.8518717712783	0.61671066931112
9.8292609180328	0.61670244407747
9.8067536146549	0.61669432417453
9.7843491514360	0.61668631093094
9.7620468251384	0.61667840561892
9.7398459389214	0.61667060945495
9.7177458022690	0.61666292360037
9.6957457309185	0.61665534916206
9.6738450467893	0.61664788719309
9.6520430779137	0.61664053869335
9.6303391583681	0.61663330461020
9.6087326282051	0.61662618583916
9.5872228333866	0.61661918322449
9.5658091257179	0.61661229755990
9.5444908627826	0.61660552958917
9.5232674078780	0.61659888000678
9.5021381299525	0.61659234945861
9.4811024035421	0.61658593854253
9.4601596087094	0.61657964780906
9.4393091309824	0.61657347776206
9.4185503612944	0.61656742885930
9.3978826959248	0.61656150151315
9.3773055364404	0.61655569609122
9.3568182896380	0.61655001291698
9.3364203674868	0.61654445227042
9.3161111870727	0.61653901438866
9.2958901705426	0.61653369946662
9.2757567450495	0.61652850765765
9.2557103426984	0.61652343907413
9.2357504004929	0.61651849378813
9.2158763602828	0.61651367183206
9.1960876687117	0.61650897319924
9.1763837771656	0.61650439784461
9.1567641417227	0.61649994568525
9.1372282231027	0.61649561660111
9.1177754866180	0.61649141043556
9.0984054021244	0.61648732699605
9.0791174439733	0.61648336605468
9.0599110909640	0.61647952734889
9.0407858262967	0.61647581058198
9.0217411375263	0.61647221542382
9.0027765165165	0.61646874151137
8.9838914593947	0.61646538844935
8.9650854665072	0.61646215581080
8.9463580423754	0.61645904313774
8.9277086956522	0.61645604994168
8.9091369390788	0.61645317570431
8.8906422894425	0.61645041987802
8.8722242675348	0.61644778188654
8.8538823981099	0.61644526112552
8.8356162098438	0.61644285696308
8.8174252352941	0.61644056874045
8.7993090108600	0.61643839577250
8.7812670767428	0.61643633734833
8.7632989769073	0.61643439273189
8.7454042590432	0.61643256116247
8.7275824745269	0.61643084185534
8.7098331783847	0.61642923400228
8.6921559292549	0.61642773677213
8.6745502893519	0.61642634931140
8.6570158244297	0.61642507074476
8.6395521037464	0.61642390017564
8.6221587000288	0.61642283668678
8.6048351894374	0.61642187934073
8.5875811515325	0.61642102718044
8.5703961692396	0.61642027922977
8.5532798288160	0.61641963449405
8.5362317198178	0.61641909196059
8.5192514350668	0.61641865059921
8.5023385706183	0.61641830936278
8.4854927257288	0.61641806718772
8.4687135028249	0.61641792299455
8.4520005074711	0.61641787568835
8.4353533483399	0.61641792415934
8.4187716371806	0.61641806728332
8.4022549887892	0.61641830392220
8.3858030209790	0.61641863292453
8.3694153545505	0.61641905312594
8.3530916132627	0.61641956334964
8.3368314238042	0.61642016240696
8.3206344157646	0.61642084909777
8.3045002216066	0.61642162221099
8.2884284766381	0.61642248052505
8.2724188189845	0.61642342280838
8.2564708895621	0.61642444781987
8.2405843320506	0.61642555430931
8.2247587928669	0.61642674101788
8.2089939211391	0.61642800667859
8.1932893686800	0.61642935001673
8.1776447899618	0.61643076975032
8.1620598420909	0.61643226459056
8.1465341847826	0.61643383324224
8.1310674803363	0.61643547440419
8.1156593936113	0.61643718676974
8.1003095920022	0.61643896902707
8.0850177454153	0.61644081985971
8.0697835262450	0.61644273794691
8.0546066093498	0.61644472196406
8.0394866720300	0.61644677058310
8.0244233940043	0.61644888247294
8.0094164573871	0.61645105629982
7.9944655466667	0.61645329072774
7.9795703486825	0.61645558441883
7.9647305526036	0.61645793603374
7.9499458499072	0.61646034423203
7.9352159343568	0.61646280767252
7.9205405019815	0.61646532501372
7.9059192510549	0.61646789491411
7.8913518820742	0.61647051603257
7.8768380977404	0.61647318702873
7.8623776029373	0.61647590656330
7.8479701047120	0.61647867329843
7.8336153122550	0.61648148589805
7.8193129368805	0.61648434302823
7.8050626920073	0.61648724335750
7.7908642931393	0.61649018555717
7.7767174578470	0.61649316830168
7.7626219057483	0.61649619026889
7.7485773584906	0.61649925014044
7.7345835397317	0.61650234660202
7.7206401751223	0.61650547834371
7.7067469922879	0.61650864406027
7.6929037208109	0.61651184245142
7.6791100922131	0.61651507222217
7.6653658399386	0.61651833208308
7.6516706993364	0.61652162075057
7.6380244076433	0.61652493694716
7.6244267039674	0.61652827940179
7.6108773292714	0.61653164685007
7.5973760263558	0.61653503803454
7.5839225398432	0.61653845170494
7.5705166161616	0.61654188661846
7.5571580035291	0.61654534154002
7.5438464519376	0.61654881524246
7.5305817131374	0.61655230650684
7.5173635406219	0.61655581412264
7.5041916896120	0.61655933688804
7.4910659170415	0.61656287361007
7.4779859815415	0.61656642310492
7.4649516434263	0.61656998419810
7.4519626646781	0.61657355572468
7.4390188089330	0.61657713652952
7.4261198414664	0.61658072546741
7.4132655291790	0.61658432140335
7.4004556405826	0.61658792321269
7.3876899457861	0.61659152978136
7.3749682164822	0.61659514000601
7.3622902259332	0.61659875279426
7.3496557489581	0.61660236706481
7.3370645619187	0.61660598174767
7.3245164427071	0.61660959578429
7.3120111707317	0.61661320812774
7.2995485269053	0.61661681774287
7.2871282936315	0.61662042360648
7.2747502547925	0.61662402470745
7.2624141957364	0.61662762004688
7.2501199032648	0.61663120863827
7.2378671656205	0.61663478950762
7.2256557724753	0.61663836169358
7.2134855149182	0.61664192424758
7.2013561854432	0.61664547623397
7.1892675779376	0.61664901673011
7.1772194876706	0.61665254482649
7.1652117112811	0.61665605962687
7.1532440467669	0.61665956024836
7.1413162934731	0.61666304582155
7.1294282520809	0.61666651549058
7.1175797245964	0.61666996841324
7.1057705143399	0.61667340376109
7.0940004259347	0.61667682071951
7.0822692652965	0.61668021848781
7.0705768396226	0.61668359627927
7.0589229573817	0.61668695332128
7.0473074283028	0.61669028885534
7.0357300633654	0.61669360213717
7.0241906747891	0.61669689243674
7.0126890760234	0.61670015903837
7.0012250817375	0.61670340124074
6.9897985078107	0.61670661835698
6.9784091713222	0.61670980971468
6.9670568905415	0.61671297465593
6.9557414849188	0.61671611253742
6.9444627750753	0.61671922273039
6.9332205827937	0.61672230462071
6.9220147310090	0.61672535760891
6.9108450437990	0.61672838111017
6.8997113463751	0.61673137455436
6.8886134650735	0.61673433738606
6.8775512273457	0.61673726906456
6.8665244617499	0.61674016906387
6.8555329979419	0.61674303687273
6.8445766666667	0.61674587199459
6.8336552997493	0.61674867394765
6.8227687300865	0.61675144226481
6.8119167916383	0.61675417649366
6.8010993194192	0.61675687619651
6.7903161494904	0.61675954095033
6.7795671189507	0.61676217034675
6.7688520659291	0.61676476399201
6.7581708295762	0.61676732150698
6.7475232500563	0.61676984252708
6.7369091685393	0.61677232670228
6.7263284271932	0.61677477369704
6.7157808691756	0.61677718319029
6.7052663386267	0.61677955487537
6.6947846806610	0.61678188845998
6.6843357413601	0.61678418366615
6.6739193677649	0.61678644023017
6.6635354078684	0.61678865790253
6.6531837106081	0.61679083644788
6.6428641258586	0.61679297564496
6.6325765044248	0.61679507528651
6.6223206980340	0.61679713517925
6.6120965593295	0.61679915514377
6.6019039418630	0.61680113501445
6.5917427000879	0.61680307463943
6.5816126893524	0.61680497388049
6.5715137658922	0.61680683261297
6.5614457868243	0.61680865072572
6.5514086101399	0.61681042812094
6.5414020946978	0.61681216471419
6.5314261002179	0.61681386043421
6.5214804872743	0.61681551522287
6.5115651172893	0.61681712903505
6.5016798525266	0.61681870183856
6.4918245560849	0.61682023361402
6.4819990918919	0.61682172435477
6.4722033246978	0.61682317406674
6.4624371200690	0.61682458276837
6.4527003443823	0.61682595049048
6.4429928648184	0.61682727727614
6.4333145493562	0.61682856318059
6.4236652667667	0.61682980827111
6.4140448866068	0.61683101262686
6.4044532792138	0.61683217633882
6.3948903156997	0.61683329950962
6.3853558679446	0.61683438225343
6.3758498085921	0.61683542469582
6.3663720110427	0.61683642697366
6.3569223494487	0.61683738923495
6.3475006987084	0.61683831163869
6.3381069344609	0.61683919435478
6.3287409330800	0.61684003756383
6.3194025716695	0.61684084145707
6.3100917280572	0.61684160623618
6.3008082807902	0.61684233211315
6.2915521091291	0.61684301931013
6.2823230930427	0.61684366805930
6.2731211132036	0.61684427860274
6.2639460509820	0.61684485119220
6.2547977884415	0.61684538608907
6.2456762083333	0.61684588356411
6.2365811940919	0.61684634389738
6.2275126298297	0.61684676737806
6.2184704003319	0.61684715430429
6.2094543910522	0.61684750498299
6.2004644881075	0.61684781972975
6.1915005782734	0.61684809886865
6.1825625489792	0.61684834273208
6.1736502883031	0.61684855166062
6.1647636849681	0.61684872600284
6.1559026283368	0.61684886611515
6.1470670084068	0.61684897236165
6.1382567158067	0.61684904511394
6.1294716417910	0.61684908475097
6.1207116782360	0.61684909165888
6.1119767176351	0.61684906623082
6.1032666530945	0.61684900886677
6.0945813783289	0.61684891997341
6.0859207876573	0.61684879996393
6.0772847759984	0.61684864925783
6.0686732388664	0.61684846828080
6.0600860723671	0.61684825746453
6.0515231731934	0.61684801724654
6.0429844386212	0.61684774806997
6.0344697665056	0.61684745038350
6.0259790552764	0.61684712464106
6.0175122039342	0.61684677130177
6.0090691120465	0.61684639082968
6.0006496797438	0.61684598369365
5.9922538077154	0.61684555036715
5.9838813972056	0.61684509132810
5.9755323500100	0.61684460705869
5.9672065684713	0.61684409804522
5.9589039554760	0.61684356477789
5.9506244144502	0.61684300775067
5.9423678493558	0.61684242746110
5.9341341646873	0.61684182441014
5.9259232654675	0.61684119910195
5.9177350572444	0.61684055204379
5.9095694460871	0.61683988374576
5.9014263385827	0.61683919472071
5.8933056418321	0.61683848548400
5.8852072634472	0.61683775655339
5.8771311115468	0.61683700844881
5.8690770947533	0.61683624169222
5.8610451221896	0.61683545680745
5.8530351034752	0.61683465432000
5.8450469487229	0.61683383475689
5.8370805685358	0.61683299864647
5.8291358740035	0.61683214651829
5.8212127766990	0.61683127890290
5.8133111886756	0.61683039633168
5.8054310224632	0.61682949933669
5.7975721910656	0.61682858845050
5.7897346079567	0.61682766420602
5.7819181870781	0.61682672713634
5.7741228428351	0.61682577777456
5.7663484900942	0.61682481665363
5.7585950441798	0.61682384430620
5.7508624208709	0.61682286126444
5.7431505363985	0.61682186805987
5.7354593074421	0.61682086522326
5.7277886511272	0.61681985328440
5.7201384850219	0.61681883277196
5.7125087271341	0.61681780421339
5.7048992959087	0.61681676813469
5.6973101102242	0.61681572506030
5.6897410893908	0.61681467551293
5.6821921531463	0.61681362001342
5.6746632216544	0.61681255908058
5.6671542155009	0.61681149323104
5.6596650556919	0.61681042297912
5.6521956636501	0.61680934883666
5.6447459612126	0.61680827131289
5.6373158706281	0.61680719091429
5.6299053145540	0.61680610814443
5.6225142160540	0.61680502350384
5.6151424985952	0.61680393748986
5.6077900860456	0.61680285059654
5.6004569026714	0.61680176331445
5.5931428731343	0.61680067613058
5.5858479224893	0.61679958952818
5.5785719761816	0.61679850398668
5.5713149600446	0.61679741998150
5.5640768002970	0.61679633798394
5.5568574235403	0.61679525846109
5.5496567567568	0.61679418187563
5.5424747273063	0.61679310868579
5.5353112629247	0.61679203934518
5.5281662917204	0.61679097430266
5.5210397421731	0.61678991400226
5.5139315431304	0.61678885888303
5.5068416238060	0.61678780937895
5.4997699137773	0.61678676591880
5.4927163429828	0.61678572892607
5.4856808417200	0.61678469881880
5.4786633406433	0.61678367600955
5.4716637707611	0.61678266090522
5.4646820634342	0.61678165390701
5.4577181503732	0.61678065541025
5.4507719636364	0.61677966580439
5.4438434356274	0.61677868547279
5.4369324990932	0.61677771479274
5.4300390871219	0.61677675413528
5.4231631331404	0.61677580386514
5.4163045709124	0.61677486434067
5.4094633345363	0.61677393591371
5.4026393584430	0.61677301892956
5.3958325773938	0.61677211372682
5.3890429264785	0.61677122063738
5.3822703411131	0.61677033998632
5.3755147570378	0.61676947209181
5.3687761103152	0.61676861726506
5.3620543373278	0.61676777581023
5.3553493747767	0.61676694802439
5.3486611596789	0.61676613419741
5.3419896293656	0.61676533461192
5.3353347214807	0.61676454954325
5.3286963739780	0.61676377925934
5.3220745251198	0.61676302402071
5.3154691134752	0.61676228408039
5.3088800779175	0.61676155968387
5.3023073576229	0.61676085106903
5.2957508920685	0.61676015846614
5.2892106210303	0.61675948209772
5.2826864845815	0.61675882217859
5.2761784230905	0.61675817891576
5.2696863772192	0.61675755250844
5.2632102879213	0.61675694314796
5.2567500964405	0.61675635101773
5.2503057443082	0.61675577629325
5.2438771733427	0.61675521914204
5.2374643256464	0.61675467972361
5.2310671436050	0.61675415818946
5.2246855698850	0.61675365468303
5.2183195474326	0.61675316933967
5.2119690194715	0.61675270228665
5.2056339295016	0.61675225364313
5.1993142212973	0.61675182352011
5.1930098389052	0.61675141202048
5.1867207266436	0.61675101923895
5.1804468290997	0.61675064526206
5.1741880911288	0.61675029016819
5.1679444578521	0.61674995402755
5.1617158746556	0.61674963690215
5.1555022871883	0.61674933884582
5.1493036413604	0.61674905990424
5.1431198833419	0.61674880011488
5.1369509595613	0.61674855950708
5.1307968167037	0.61674833810199
5.1246574017094	0.61674813591263
5.1185326617722	0.61674795294391
5.1124225443383	0.61674778919258
5.1063269971044	0.61674764464733
5.1002459680163	0.61674751928877
5.0941794052676	0.61674741308943
5.0881272572980	0.61674732601385
5.0820894727920	0.61674725801855
5.0760660006773	0.61674720905207
5.0700567901235	0.61674717905503
5.0640617905405	0.61674716796014
5.0580809515775	0.61674717569223
5.0521142231210	0.61674720216834
5.0461615552937	0.61674724729767
5.0402228984533	0.61674731098171
5.0342982031906	0.61674739311424
5.0283874203287	0.61674749358139
5.0224905009214	0.61674761226168
5.0166073962517	0.61674774902609
5.0107380578305	0.61674790373809
5.0048824373957	0.61674807625372
4.9990404869101	0.61674826642164
4.9932121585610	0.61674847408318
4.9873974047579	0.61674869907241
4.9815961781323	0.61674894121620
4.9758084315353	0.61674920033429
4.9700341180371	0.61674947623938
4.9642731909256	0.61674976873716
4.9585256037049	0.61675007762640
4.9527913100942	0.61675040269904
4.9470702640264	0.61675074374023
4.9413624196473	0.61675110052847
4.9356677313138	0.61675147283560
4.9299861535932	0.61675186042699
4.9243176412615	0.61675226306152
4.9186621493027	0.61675268049174
4.9130196329072	0.61675311246393
4.9073900474709	0.61675355871819
4.9017733485939	0.61675401898853
4.8961694920790	0.61675449300296
4.8905784339315	0.61675498048362
4.8850001303569	0.61675548114681
4.8794345377604	0.61675599470316
4.8738816127459	0.61675652085768
4.8683413121143	0.61675705930988
4.8628135928629	0.61675760975390
4.8572984121841	0.61675817187856
4.8517957274640	0.61675874536750
4.8463054962819	0.61675932989929
4.8408276764088	0.61675992514755
4.8353622258065	0.61676053078102
