#Parameters = {thARC=1; nARC=2.75; thsub=1; p=1; nSub=4.25}
#"Wavelength / um"	"T (750) [Real Part]"
#---------------------------------------
14.989622900000	0.85200783279254
14.937342202292	0.85318631566423
14.885424925521	0.85435861976297
14.833867293419	0.85552462722322
14.782665581854	0.85668421987428
14.731816117936	0.85783727926472
14.681315279138	0.85898368668717
14.631159492435	0.86012332320345
14.581345233463	0.86125606967022
14.531869025691	0.86238180676490
14.482727439614	0.86350041501208
14.433917091960	0.86461177481016
14.385434644914	0.86571576645854
14.337276805356	0.86681227018506
14.289440324118	0.86790116617376
14.241921995249	0.86898233459313
14.194718655303	0.87005565562454
14.147827182633	0.87112100949115
14.101244496707	0.87217827648697
14.054967557431	0.87322733700643
14.008993364486	0.87426807157410
13.963318956684	0.87530036087475
13.917941411328	0.87632408578372
13.872857843591	0.87733912739756
13.828065405904	0.87834536706488
13.783561287356	0.87934268641750
13.739342713107	0.88033096740186
13.695406943810	0.88131009231056
13.651751275046	0.88227994381425
13.608373036768	0.88324040499362
13.565269592760	0.88419135937165
13.522438340099	0.88513269094593
13.479876708633	0.88606428422133
13.437582160466	0.88698602424263
13.395552189455	0.88789779662741
13.353784320713	0.88879948759903
13.312276110124	0.88969098401968
13.271025143869	0.89057217342362
13.230029037952	0.89144294405036
13.189285437747	0.89230318487810
13.148792017544	0.89315278565699
13.108546480105	0.89399163694262
13.068546556234	0.89481963012944
13.028790004346	0.89563665748417
12.989274610052	0.89644261217923
12.949998185745	0.89723738832618
12.910958570198	0.89802088100897
12.872153628167	0.89879298631734
12.833581250000	0.89955360137996
12.795239351259	0.90030262439755
12.757125872340	0.90103995467587
12.719238778108	0.90176549265863
12.681576057530	0.90247913996018
12.644135723323	0.90318079939807
12.606915811606	0.90387037502544
12.569914381551	0.90454777216320
12.533129515050	0.90521289743195
12.496559316382	0.90586565878379
12.460201911887	0.90650596553370
12.424055449648	0.90713372839084
12.388118099174	0.90774885948938
12.352388051092	0.90835127241921
12.316863516845	0.90894088225616
12.281542728390	0.90951760559200
12.246423937908	0.91008136056402
12.211505417515	0.91063206688430
12.176785458976	0.91116964586847
12.142262373431	0.91169402046422
12.107934491115	0.91220511527926
12.073800161095	0.91270285660892
12.039857751004	0.91318717246321
12.006105646776	0.91365799259352
11.972542252396	0.91411524851869
11.939165989646	0.91455887355072
11.905975297855	0.91498880281986
11.872968633663	0.91540497329916
11.840144470774	0.91580732382856
11.807501299724	0.91619579513829
11.775037627651	0.91657032987180
11.742751978065	0.91693087260800
11.710642890625	0.91727736988299
11.678708920919	0.91760977021102
11.646948640249	0.91792802410500
11.615360635413	0.91823208409619
11.583943508501	0.91852190475332
11.552695876686	0.91879744270104
11.521616372022	0.91905865663759
11.490703641242	0.91930550735190
11.459956345566	0.91953795773988
11.429373160503	0.91975597282003
11.398952775665	0.91995951974831
11.368693894577	0.92014856783230
11.338595234493	0.92032308854455
11.308655526217	0.92048305553522
11.278873513920	0.92062844464393
11.249247954972	0.92075923391085
11.219777619760	0.92087540358700
11.190461291527	0.92097693614376
11.161297766195	0.92106381628157
11.132285852209	0.92113603093788
11.103424370370	0.92119356929422
11.074712153676	0.92123642278250
11.046148047163	0.92126458509052
11.017730907755	0.92127805216660
10.989459604106	0.92127682222344
10.961333016453	0.92126089574111
10.933350036470	0.92123027546926
10.905509567115	0.92118496642847
10.877810522496	0.92112497591076
10.850251827723	0.92105031347932
10.822832418773	0.92096099096734
10.795551242348	0.92085702247611
10.768407255747	0.92073842437215
10.741399426729	0.92060521528368
10.714526733381	0.92045741609612
10.687788163993	0.92029504994684
10.661182716927	0.92011814221915
10.634709400497	0.91992672053532
10.608367232838	0.91972081474893
10.582155241793	0.91950045693640
10.556072464789	0.91926568138764
10.530117948718	0.91901652459599
10.504290749825	0.91875302524733
10.478589933590	0.91847522420847
10.453014574616	0.91818316451468
10.427563756522	0.91787689135656
10.402236571825	0.91755645206605
10.377032121841	0.91722189610180
10.351949516575	0.91687327503376
10.326987874612	0.91651064252700
10.302146323024	0.91613405432489
10.277423997257	0.91574356823159
10.252820041040	0.91533924409372
10.228333606278	0.91492114378153
10.203963852961	0.91448933116925
10.179709949066	0.91404387211487
10.155571070461	0.91358483443928
10.131546400811	0.91311228790472
10.107635131490	0.91262630419269
10.083836461487	0.91212695688120
10.060149597315	0.91161432142148
10.036573752929	0.91108847511409
10.013108149633	0.91054949708448
9.9897520159947	0.90999746825802
9.9665045877660	0.90943247133449
9.9433651077944	0.90885459076208
9.9203328259431	0.90826391271085
9.8974069990096	0.90766052504580
9.8745868906456	0.90704451729938
9.8518717712783	0.90641598064361
9.8292609180328	0.90577500786179
9.8067536146549	0.90512169331974
9.7843491514360	0.90445613293669
9.7620468251384	0.90377842415580
9.7398459389214	0.90308866591429
9.7177458022690	0.90238695861322
9.6957457309185	0.90167340408701
9.6738450467893	0.90094810557259
9.6520430779137	0.90021116767829
9.6303391583681	0.89946269635244
9.6087326282051	0.89870279885172
9.5872228333866	0.89793158370933
9.5658091257179	0.89714916070283
9.5444908627826	0.89635564082187
9.5232674078780	0.89555113623573
9.5021381299525	0.89473576026063
9.4811024035421	0.89390962732698
9.4601596087094	0.89307285294641
9.4393091309824	0.89222555367876
9.4185503612944	0.89136784709893
9.3978826959248	0.89049985176368
9.3773055364404	0.88962168717832
9.3568182896380	0.88873347376343
9.3364203674868	0.88783533282146
9.3161111870727	0.88692738650340
9.2958901705426	0.88600975777539
9.2757567450495	0.88508257038540
9.2557103426984	0.88414594882990
9.2357504004929	0.88320001832063
9.2158763602828	0.88224490475137
9.1960876687117	0.88128073466487
9.1763837771656	0.88030763521982
9.1567641417227	0.87932573415794
9.1372282231027	0.87833515977121
9.1177754866180	0.87733604086924
9.0984054021244	0.87632850674680
9.0791174439733	0.87531268715147
9.0599110909640	0.87428871225152
9.0407858262967	0.87325671260400
9.0217411375263	0.87221681912295
9.0027765165165	0.87116916304793
8.9838914593947	0.87011387591272
8.9650854665072	0.86905108951426
8.9463580423754	0.86798093588188
8.9277086956522	0.86690354724681
8.9091369390788	0.86581905601185
8.8906422894425	0.86472759472150
8.8722242675348	0.86362929603224
8.8538823981099	0.86252429268318
8.8356162098438	0.86141271746707
8.8174252352941	0.86029470320151
8.7993090108600	0.85917038270061
8.7812670767428	0.85803988874698
8.7632989769073	0.85690335406399
8.7454042590432	0.85576091128845
8.7275824745269	0.85461269294370
8.7098331783847	0.85345883141295
8.6921559292549	0.85229945891312
8.6745502893519	0.85113470746901
8.6570158244297	0.84996470888783
8.6395521037464	0.84878959473423
8.6221587000288	0.84760949630562
8.6048351894374	0.84642454460799
8.5875811515325	0.84523487033206
8.5703961692396	0.84404060382993
8.5532798288160	0.84284187509210
8.5362317198178	0.84163881372492
8.5192514350668	0.84043154892848
8.5023385706183	0.83922020947496
8.4854927257288	0.83800492368734
8.4687135028249	0.83678581941863
8.4520005074711	0.83556302403149
8.4353533483399	0.83433666437829
8.4187716371806	0.83310686678168
8.4022549887892	0.83187375701548
8.3858030209790	0.83063746028617
8.3694153545505	0.82939810121468
8.3530916132627	0.82815580381875
8.3368314238042	0.82691069149563
8.3206344157646	0.82566288700532
8.3045002216066	0.82441251245421
8.2884284766381	0.82315968927916
8.2724188189845	0.82190453823206
8.2564708895621	0.82064717936479
8.2405843320506	0.81938773201468
8.2247587928669	0.81812631479038
8.2089939211391	0.81686304555813
8.1932893686800	0.81559804142858
8.1776447899618	0.81433141874391
8.1620598420909	0.81306329306553
8.1465341847826	0.81179377916205
8.1310674803363	0.81052299099786
8.1156593936113	0.80925104172195
8.1003095920022	0.80797804365731
8.0850177454153	0.80670410829068
8.0697835262450	0.80542934626269
8.0546066093498	0.80415386735847
8.0394866720300	0.80287778049865
8.0244233940043	0.80160119373078
8.0094164573871	0.80032421422107
7.9944655466667	0.79904694824667
7.9795703486825	0.79776950118823
7.9647305526036	0.79649197752289
7.9499458499072	0.79521448081765
7.9352159343568	0.79393711372314
7.9205405019815	0.79265997796772
7.9059192510549	0.79138317435200
7.8913518820742	0.79010680274370
7.8768380977404	0.78883096207287
7.8623776029373	0.78755575032750
7.8479701047120	0.78628126454940
7.8336153122550	0.78500760083055
7.8193129368805	0.78373485430966
7.8050626920073	0.78246311916915
7.7908642931393	0.78119248863246
7.7767174578470	0.77992305496161
7.7626219057483	0.77865490945517
7.7485773584906	0.77738814244649
7.7345835397317	0.77612284330226
7.7206401751223	0.77485910042135
7.7067469922879	0.77359700123398
7.6929037208109	0.77233663220113
7.6791100922131	0.77107807881432
7.6653658399386	0.76982142559558
7.6516706993364	0.76856675609775
7.6380244076433	0.76731415290501
7.6244267039674	0.76606369763374
7.6108773292714	0.76481547093354
7.5973760263558	0.76356955248862
7.5839225398432	0.76232602101930
7.5705166161616	0.76108495428387
7.5571580035291	0.75984642908062
7.5438464519376	0.75861052125013
7.5305817131374	0.75737730567775
7.5173635406219	0.75614685629635
7.5041916896120	0.75491924608920
7.4910659170415	0.75369454709317
7.4779859815415	0.75247283040203
7.4649516434263	0.75125416617000
7.4519626646781	0.75003862361548
7.4390188089330	0.74882627102495
7.4261198414664	0.74761717575708
7.4132655291790	0.74641140424700
7.4004556405826	0.74520902201073
7.3876899457861	0.74401009364977
7.3749682164822	0.74281468285590
7.3622902259332	0.74162285241607
7.3496557489581	0.74043466421745
7.3370645619187	0.73925017925269
7.3245164427071	0.73806945762524
7.3120111707317	0.73689255855482
7.2995485269053	0.73571954038307
7.2871282936315	0.73455046057926
7.2747502547925	0.73338537574619
7.2624141957364	0.73222434162612
7.2501199032648	0.73106741310686
7.2378671656205	0.72991464422802
7.2256557724753	0.72876608818724
7.2134855149182	0.72762179734662
7.2013561854432	0.72648182323921
7.1892675779376	0.72534621657555
7.1772194876706	0.72421502725038
7.1652117112811	0.72308830434938
7.1532440467669	0.72196609615593
7.1413162934731	0.72084845015808
7.1294282520809	0.71973541305547
7.1175797245964	0.71862703076637
7.1057705143399	0.71752334843477
7.0940004259347	0.71642441043754
7.0822692652965	0.71533026039159
7.0705768396226	0.71424094116117
7.0589229573817	0.71315649486515
7.0473074283028	0.71207696288438
7.0357300633654	0.71100238586903
7.0241906747891	0.70993280374607
7.0126890760234	0.70886825572669
7.0012250817375	0.70780878031379
6.9897985078107	0.70675441530950
6.9784091713222	0.70570519782274
6.9670568905415	0.70466116427672
6.9557414849188	0.70362235041660
6.9444627750753	0.70258879131701
6.9332205827937	0.70156052138973
6.9220147310090	0.70053757439124
6.9108450437990	0.69951998343041
6.8997113463751	0.69850778097609
6.8886134650735	0.69750099886477
6.8775512273457	0.69649966830820
6.8665244617499	0.69550381990106
6.8555329979419	0.69451348362854
6.8445766666667	0.69352868887400
6.8336552997493	0.69254946442659
6.8227687300865	0.69157583848882
6.8119167916383	0.69060783868420
6.8010993194192	0.68964549206478
6.7903161494904	0.68868882511873
6.7795671189507	0.68773786377789
6.7688520659291	0.68679263342526
6.7581708295762	0.68585315890254
6.7475232500563	0.68491946451759
6.7369091685393	0.68399157405186
6.7263284271932	0.68306951076786
6.7157808691756	0.68215329741650
6.7052663386267	0.68124295624450
6.6947846806610	0.68033850900170
6.6843357413601	0.67943997694836
6.6739193677649	0.67854738086242
6.6635354078684	0.67766074104676
6.6531837106081	0.67678007733635
6.6428641258586	0.67590540910542
6.6325765044248	0.67503675527457
6.6223206980340	0.67417413431786
6.6120965593295	0.67331756426981
6.6019039418630	0.67246706273242
6.5917427000879	0.67162264688207
6.5816126893524	0.67078433347648
6.5715137658922	0.66995213886149
6.5614457868243	0.66912607897792
6.5514086101399	0.66830616936832
6.5414020946978	0.66749242518364
6.5314261002179	0.66668486118994
6.5214804872743	0.66588349177497
6.5115651172893	0.66508833095474
6.5016798525266	0.66429939238001
6.4918245560849	0.66351668934279
6.4819990918919	0.66274023478267
6.4722033246978	0.66197004129324
6.4624371200690	0.66120612112834
6.4527003443823	0.66044848620833
6.4429928648184	0.65969714812624
6.4333145493562	0.65895211815393
6.4236652667667	0.65821340724816
6.4140448866068	0.65748102605661
6.4044532792138	0.65675498492381
6.3948903156997	0.65603529389708
6.3853558679446	0.65532196273239
6.3758498085921	0.65461500090008
6.3663720110427	0.65391441759067
6.3569223494487	0.65322022172050
6.3475006987084	0.65253242193731
6.3381069344609	0.65185102662587
6.3287409330800	0.65117604391341
6.3194025716695	0.65050748167510
6.3100917280572	0.64984534753940
6.3008082807902	0.64918964889341
6.2915521091291	0.64854039288809
6.2823230930427	0.64789758644351
6.2731211132036	0.64726123625394
6.2639460509820	0.64663134879297
6.2547977884415	0.64600793031851
6.2456762083333	0.64539098687774
6.2365811940919	0.64478052431206
6.2275126298297	0.64417654826188
6.2184704003319	0.64357906417142
6.2094543910522	0.64298807729344
6.2004644881075	0.64240359269388
6.1915005782734	0.64182561525651
6.1825625489792	0.64125414968740
6.1736502883031	0.64068920051946
6.1647636849681	0.64013077211685
6.1559026283368	0.63957886867934
6.1470670084068	0.63903349424660
6.1382567158067	0.63849465270246
6.1294716417910	0.63796234777911
6.1207116782360	0.63743658306120
6.1119767176351	0.63691736198992
6.1032666530945	0.63640468786702
6.0945813783289	0.63589856385872
6.0859207876573	0.63539899299966
6.0772847759984	0.63490597819670
6.0686732388664	0.63441952223269
6.0600860723671	0.63393962777022
6.0515231731934	0.63346629735524
6.0429844386212	0.63299953342068
6.0344697665056	0.63253933829001
6.0259790552764	0.63208571418072
6.0175122039342	0.63163866320772
6.0090691120465	0.63119818738677
6.0006496797438	0.63076428863774
5.9922538077154	0.63033696878792
5.9838813972056	0.62991622957520
5.9755323500100	0.62950207265120
5.9672065684713	0.62909449958443
5.9589039554760	0.62869351186324
5.9506244144502	0.62829911089888
5.9423678493558	0.62791129802837
5.9341341646873	0.62753007451741
5.9259232654675	0.62715544156317
5.9177350572444	0.62678740029710
5.9095694460871	0.62642595178756
5.9014263385827	0.62607109704257
5.8933056418321	0.62572283701234
5.8852072634472	0.62538117259184
5.8771311115468	0.62504610462330
5.8690770947533	0.62471763389866
5.8610451221896	0.62439576116193
5.8530351034752	0.62408048711157
5.8450469487229	0.62377181240272
5.8370805685358	0.62346973764948
5.8291358740035	0.62317426342706
5.8212127766990	0.62288539027392
5.8133111886756	0.62260311869384
5.8054310224632	0.62232744915796
5.7975721910656	0.62205838210672
5.7897346079567	0.62179591795184
5.7819181870781	0.62154005707813
5.7741228428351	0.62129079984535
5.7663484900942	0.62104814658996
5.7585950441798	0.62081209762687
5.7508624208709	0.62058265325109
5.7431505363985	0.62035981373934
5.7354593074421	0.62014357935164
5.7277886511272	0.61993395033285
5.7201384850219	0.61973092691410
5.7125087271341	0.61953450931425
5.7048992959087	0.61934469774123
5.6973101102242	0.61916149239341
5.6897410893908	0.61898489346086
5.6821921531463	0.61881490112655
5.6746632216544	0.61865151556758
5.6671542155009	0.61849473695627
5.6596650556919	0.61834456546129
5.6521956636501	0.61820100124864
5.6447459612126	0.61806404448271
5.6373158706281	0.61793369532714
5.6299053145540	0.61780995394579
5.6225142160540	0.61769282050354
5.6151424985952	0.61758229516711
5.6077900860456	0.61747837810582
5.6004569026714	0.61738106949224
5.5931428731343	0.61729036950294
5.5858479224893	0.61720627831903
5.5785719761816	0.61712879612675
5.5713149600446	0.61705792311799
5.5640768002970	0.61699365949075
5.5568574235403	0.61693600544959
5.5496567567568	0.61688496120596
5.5424747273063	0.61684052697862
5.5353112629247	0.61680270299380
5.5281662917204	0.61677148948558
5.5210397421731	0.61674688669597
5.5139315431304	0.61672889487510
5.5068416238060	0.61671751428134
5.4997699137773	0.61671274518134
5.4927163429828	0.61671458785002
5.4856808417200	0.61672304257054
5.4786633406433	0.61673810963425
5.4716637707611	0.61675978934052
5.4646820634342	0.61678808199657
5.4577181503732	0.61682298791728
5.4507719636364	0.61686450742486
5.4438434356274	0.61691264084862
5.4369324990932	0.61696738852453
5.4300390871219	0.61702875079486
5.4231631331404	0.61709672800771
5.4163045709124	0.61717132051651
5.4094633345363	0.61725252867950
5.4026393584430	0.61734035285908
5.3958325773938	0.61743479342125
5.3890429264785	0.61753585073485
5.3822703411131	0.61764352517089
5.3755147570378	0.61775781710172
5.3687761103152	0.61787872690024
5.3620543373278	0.61800625493903
5.3553493747767	0.61814040158940
5.3486611596789	0.61828116722047
5.3419896293656	0.61842855219810
5.3353347214807	0.61858255688388
5.3286963739780	0.61874318163402
5.3220745251198	0.61891042679816
5.3154691134752	0.61908429271819
5.3088800779175	0.61926477972702
5.3023073576229	0.61945188814725
5.2957508920685	0.61964561828984
5.2892106210303	0.61984597045272
5.2826864845815	0.62005294491934
5.2761784230905	0.62026654195720
5.2696863772192	0.62048676181629
5.2632102879213	0.62071360472750
5.2567500964405	0.62094707090102
5.2503057443082	0.62118716052462
5.2438771733427	0.62143387376193
5.2374643256464	0.62168721075068
5.2310671436050	0.62194717160081
5.2246855698850	0.62221375639267
5.2183195474326	0.62248696517502
5.2119690194715	0.62276679796307
5.2056339295016	0.62305325473649
5.1993142212973	0.62334633543725
5.1930098389052	0.62364603996757
5.1867207266436	0.62395236818769
5.1804468290997	0.62426531991365
5.1741880911288	0.62458489491500
5.1679444578521	0.62491109291248
5.1617158746556	0.62524391357562
5.1555022871883	0.62558335652032
5.1493036413604	0.62592942130633
5.1431198833419	0.62628210743474
5.1369509595613	0.62664141434537
5.1307968167037	0.62700734141413
5.1246574017094	0.62737988795033
5.1185326617722	0.62775905319390
5.1124225443383	0.62814483631262
5.1063269971044	0.62853723639923
5.1002459680163	0.62893625246855
5.0941794052676	0.62934188345452
5.0881272572980	0.62975412820713
5.0820894727920	0.63017298548940
5.0760660006773	0.63059845397425
5.0700567901235	0.63103053224129
5.0640617905405	0.63146921877361
5.0580809515775	0.63191451195448
5.0521142231210	0.63236641006401
5.0461615552937	0.63282491127576
5.0402228984533	0.63329001365326
5.0342982031906	0.63376171514652
5.0283874203287	0.63424001358845
5.0224905009214	0.63472490669128
5.0166073962517	0.63521639204280
5.0107380578305	0.63571446710272
5.0048824373957	0.63621912919882
4.9990404869101	0.63673037552312
4.9932121585610	0.63724820312797
4.9873974047579	0.63777260892210
4.9815961781323	0.63830358966663
4.9758084315353	0.63884114197092
4.9700341180371	0.63938526228853
4.9642731909256	0.63993594691297
4.9585256037049	0.64049319197347
4.9527913100942	0.64105699343070
4.9470702640264	0.64162734707238
4.9413624196473	0.64220424850888
4.9356677313138	0.64278769316875
4.9299861535932	0.64337767629416
4.9243176412615	0.64397419293634
4.9186621493027	0.64457723795092
4.9130196329072	0.64518680599322
4.9073900474709	0.64580289151350
4.9017733485939	0.64642548875212
4.8961694920790	0.64705459173467
4.8905784339315	0.64769019426704
4.8850001303569	0.64833228993040
4.8794345377604	0.64898087207620
4.8738816127459	0.64963593382100
4.8683413121143	0.65029746804133
4.8628135928629	0.65096546736849
4.8572984121841	0.65163992418319
4.8517957274640	0.65232083061033
4.8463054962819	0.65300817851349
4.8408276764088	0.65370195948954
4.8353622258065	0.65440216486311
