#Parameters = {thARC=0.8; nARC=1; thsub=1; p=1; nSub=4.5}
#"Wavelength / um"	"T (761) [Real Part]"
#---------------------------------------
14.989622900000	0.59504076859919
14.937342202292	0.59504112118981
14.885424925521	0.59504145062833
14.833867293419	0.59504175754506
14.782665581854	0.59504204256245
14.731816117936	0.59504230629506
14.681315279138	0.59504254934961
14.631159492435	0.59504277232494
14.581345233463	0.59504297581202
14.531869025691	0.59504316039394
14.482727439614	0.59504332664595
14.433917091960	0.59504347513543
14.385434644914	0.59504360642188
14.337276805356	0.59504372105701
14.289440324118	0.59504381958462
14.241921995249	0.59504390254075
14.194718655303	0.59504397045357
14.147827182633	0.59504402384346
14.101244496707	0.59504406322300
14.054967557431	0.59504408909701
14.008993364486	0.59504410196251
13.963318956684	0.59504410230881
13.917941411328	0.59504409061744
13.872857843591	0.59504406736227
13.828065405904	0.59504403300944
13.783561287356	0.59504398801743
13.739342713107	0.59504393283707
13.695406943810	0.59504386791155
13.651751275046	0.59504379367648
13.608373036768	0.59504371055987
13.565269592760	0.59504361898218
13.522438340099	0.59504351935636
13.479876708633	0.59504341208785
13.437582160466	0.59504329757462
13.395552189455	0.59504317620720
13.353784320713	0.59504304836872
13.312276110124	0.59504291443494
13.271025143869	0.59504277477426
13.230029037952	0.59504262974778
13.189285437747	0.59504247970933
13.148792017544	0.59504232500548
13.108546480105	0.59504216597564
13.068546556234	0.59504200295201
13.028790004346	0.59504183625968
12.989274610052	0.59504166621666
12.949998185745	0.59504149313391
12.910958570198	0.59504131731537
12.872153628167	0.59504113905802
12.833581250000	0.59504095865192
12.795239351259	0.59504077638024
12.757125872340	0.59504059251931
12.719238778108	0.59504040733869
12.681576057530	0.59504022110117
12.644135723323	0.59504003406284
12.606915811606	0.59503984647313
12.569914381551	0.59503965857488
12.533129515050	0.59503947060435
12.496559316382	0.59503928279129
12.460201911887	0.59503909535900
12.424055449648	0.59503890852435
12.388118099174	0.59503872249786
12.352388051092	0.59503853748372
12.316863516845	0.59503835367988
12.281542728390	0.59503817127808
12.246423937908	0.59503799046387
12.211505417515	0.59503781141675
12.176785458976	0.59503763431013
12.142262373431	0.59503745931143
12.107934491115	0.59503728658216
12.073800161095	0.59503711627792
12.039857751004	0.59503694854847
12.006105646776	0.59503678353783
11.972542252396	0.59503662138427
11.939165989646	0.59503646222043
11.905975297855	0.59503630617333
11.872968633663	0.59503615336445
11.840144470774	0.59503600390978
11.807501299724	0.59503585791990
11.775037627651	0.59503571550000
11.742751978065	0.59503557674998
11.710642890625	0.59503544176449
11.678708920919	0.59503531063296
11.646948640249	0.59503518343974
11.615360635413	0.59503506026408
11.583943508501	0.59503494118024
11.552695876686	0.59503482625751
11.521616372022	0.59503471556033
11.490703641242	0.59503460914830
11.459956345566	0.59503450707625
11.429373160503	0.59503440939434
11.398952775665	0.59503431614807
11.368693894577	0.59503422737838
11.338595234493	0.59503414312169
11.308655526217	0.59503406340999
11.278873513920	0.59503398827088
11.249247954972	0.59503391772762
11.219777619760	0.59503385179925
11.190461291527	0.59503379050059
11.161297766195	0.59503373384235
11.132285852209	0.59503368183116
11.103424370370	0.59503363446965
11.074712153676	0.59503359175652
11.046148047163	0.59503355368661
11.017730907755	0.59503352025093
10.989459604106	0.59503349143675
10.961333016453	0.59503346722767
10.933350036470	0.59503344760366
10.905509567115	0.59503343254117
10.877810522496	0.59503342201314
10.850251827723	0.59503341598908
10.822832418773	0.59503341443516
10.795551242348	0.59503341731426
10.768407255747	0.59503342458602
10.741399426729	0.59503343620692
10.714526733381	0.59503345213035
10.687788163993	0.59503347230664
10.661182716927	0.59503349668317
10.634709400497	0.59503352520442
10.608367232838	0.59503355781200
10.582155241793	0.59503359444477
10.556072464789	0.59503363503884
10.530117948718	0.59503367952771
10.504290749825	0.59503372784225
10.478589933590	0.59503377991085
10.453014574616	0.59503383565939
10.427563756522	0.59503389501140
10.402236571825	0.59503395788804
10.377032121841	0.59503402420820
10.351949516575	0.59503409388858
10.326987874612	0.59503416684372
10.302146323024	0.59503424298607
10.277423997257	0.59503432222607
10.252820041040	0.59503440447219
10.228333606278	0.59503448963099
10.203963852961	0.59503457760721
10.179709949066	0.59503466830381
10.155571070461	0.59503476162202
10.131546400811	0.59503485746141
10.107635131490	0.59503495571998
10.083836461487	0.59503505629418
10.060149597315	0.59503515907897
10.036573752929	0.59503526396790
10.013108149633	0.59503537085318
9.9897520159947	0.59503547962570
9.9665045877660	0.59503559017512
9.9433651077944	0.59503570238991
9.9203328259431	0.59503581615741
9.8974069990096	0.59503593136391
9.8745868906456	0.59503604789469
9.8518717712783	0.59503616563405
9.8292609180328	0.59503628446541
9.8067536146549	0.59503640427136
9.7843491514360	0.59503652493369
9.7620468251384	0.59503664633346
9.7398459389214	0.59503676835106
9.7177458022690	0.59503689086625
9.6957457309185	0.59503701375823
9.6738450467893	0.59503713690570
9.6520430779137	0.59503726018687
9.6303391583681	0.59503738347957
9.6087326282051	0.59503750666126
9.5872228333866	0.59503762960910
9.5658091257179	0.59503775220001
9.5444908627826	0.59503787431070
9.5232674078780	0.59503799581773
9.5021381299525	0.59503811659755
9.4811024035421	0.59503823652659
9.4601596087094	0.59503835548126
9.4393091309824	0.59503847333802
9.4185503612944	0.59503858997342
9.3978826959248	0.59503870526417
9.3773055364404	0.59503881908716
9.3568182896380	0.59503893131953
9.3364203674868	0.59503904183870
9.3161111870727	0.59503915052241
9.2958901705426	0.59503925724879
9.2757567450495	0.59503936189639
9.2557103426984	0.59503946434422
9.2357504004929	0.59503956447179
9.2158763602828	0.59503966215920
9.1960876687117	0.59503975728710
9.1763837771656	0.59503984973679
9.1567641417227	0.59503993939028
9.1372282231027	0.59504002613025
9.1177754866180	0.59504010984017
9.0984054021244	0.59504019040432
9.0791174439733	0.59504026770780
9.0599110909640	0.59504034163659
9.0407858262967	0.59504041207759
9.0217411375263	0.59504047891866
9.0027765165165	0.59504054204866
8.9838914593947	0.59504060135746
8.9650854665072	0.59504065673601
8.9463580423754	0.59504070807634
8.9277086956522	0.59504075527164
8.9091369390788	0.59504079821625
8.8906422894425	0.59504083680574
8.8722242675348	0.59504087093689
8.8538823981099	0.59504090050775
8.8356162098438	0.59504092541768
8.8174252352941	0.59504094556739
8.7993090108600	0.59504096085892
8.7812670767428	0.59504097119572
8.7632989769073	0.59504097648266
8.7454042590432	0.59504097662607
8.7275824745269	0.59504097153376
8.7098331783847	0.59504096111503
8.6921559292549	0.59504094528073
8.6745502893519	0.59504092394328
8.6570158244297	0.59504089701668
8.6395521037464	0.59504086441653
8.6221587000288	0.59504082606008
8.6048351894374	0.59504078186626
8.5875811515325	0.59504073175565
8.5703961692396	0.59504067565056
8.5532798288160	0.59504061347504
8.5362317198178	0.59504054515487
8.5192514350668	0.59504047061762
8.5023385706183	0.59504038979265
8.4854927257288	0.59504030261113
8.4687135028249	0.59504020900607
8.4520005074711	0.59504010891232
8.4353533483399	0.59504000226662
8.4187716371806	0.59503988900758
8.4022549887892	0.59503976907573
8.3858030209790	0.59503964241349
8.3694153545505	0.59503950896525
8.3530916132627	0.59503936867734
8.3368314238042	0.59503922149804
8.3206344157646	0.59503906737763
8.3045002216066	0.59503890626837
8.2884284766381	0.59503873812453
8.2724188189845	0.59503856290238
8.2564708895621	0.59503838056024
8.2405843320506	0.59503819105846
8.2247587928669	0.59503799435942
8.2089939211391	0.59503779042759
8.1932893686800	0.59503757922948
8.1776447899618	0.59503736073369
8.1620598420909	0.59503713491089
8.1465341847826	0.59503690173385
8.1310674803363	0.59503666117742
8.1156593936113	0.59503641321857
8.1003095920022	0.59503615783636
8.0850177454153	0.59503589501197
8.0697835262450	0.59503562472870
8.0546066093498	0.59503534697196
8.0394866720300	0.59503506172928
8.0244233940043	0.59503476899031
8.0094164573871	0.59503446874685
7.9944655466667	0.59503416099279
7.9795703486825	0.59503384572418
7.9647305526036	0.59503352293917
7.9499458499072	0.59503319263805
7.9352159343568	0.59503285482324
7.9205405019815	0.59503250949928
7.9059192510549	0.59503215667281
7.8913518820742	0.59503179635263
7.8768380977404	0.59503142854961
7.8623776029373	0.59503105327676
7.8479701047120	0.59503067054919
7.8336153122550	0.59503028038410
7.8193129368805	0.59502988280081
7.8050626920073	0.59502947782069
7.7908642931393	0.59502906546724
7.7767174578470	0.59502864576600
7.7626219057483	0.59502821874458
7.7485773584906	0.59502778443268
7.7345835397317	0.59502734286201
7.7206401751223	0.59502689406636
7.7067469922879	0.59502643808151
7.6929037208109	0.59502597494530
7.6791100922131	0.59502550469756
7.6653658399386	0.59502502738011
7.6516706993364	0.59502454303679
7.6380244076433	0.59502405171338
7.6244267039674	0.59502355345764
7.6108773292714	0.59502304831928
7.5973760263558	0.59502253634994
7.5839225398432	0.59502201760318
7.5705166161616	0.59502149213446
7.5571580035291	0.59502096000115
7.5438464519376	0.59502042126247
7.5305817131374	0.59501987597953
7.5173635406219	0.59501932421526
7.5041916896120	0.59501876603441
7.4910659170415	0.59501820150357
7.4779859815415	0.59501763069109
7.4649516434263	0.59501705366710
7.4519626646781	0.59501647050349
7.4390188089330	0.59501588127389
7.4261198414664	0.59501528605363
7.4132655291790	0.59501468491974
7.4004556405826	0.59501407795093
7.3876899457861	0.59501346522756
7.3749682164822	0.59501284683163
7.3622902259332	0.59501222284674
7.3496557489581	0.59501159335809
7.3370645619187	0.59501095845245
7.3245164427071	0.59501031821812
7.3120111707317	0.59500967274494
7.2995485269053	0.59500902212423
7.2871282936315	0.59500836644881
7.2747502547925	0.59500770581293
7.2624141957364	0.59500704031228
7.2501199032648	0.59500637004395
7.2378671656205	0.59500569510640
7.2256557724753	0.59500501559944
7.2134855149182	0.59500433162424
7.2013561854432	0.59500364328322
7.1892675779376	0.59500295068011
7.1772194876706	0.59500225391988
7.1652117112811	0.59500155310872
7.1532440467669	0.59500084835402
7.1413162934731	0.59500013976432
7.1294282520809	0.59499942744933
7.1175797245964	0.59499871151984
7.1057705143399	0.59499799208774
7.0940004259347	0.59499726926598
7.0822692652965	0.59499654316852
7.0705768396226	0.59499581391034
7.0589229573817	0.59499508160738
7.0473074283028	0.59499434637650
7.0357300633654	0.59499360833551
7.0241906747891	0.59499286760306
7.0126890760234	0.59499212429869
7.0012250817375	0.59499137854273
6.9897985078107	0.59499063045632
6.9784091713222	0.59498988016134
6.9670568905415	0.59498912778043
6.9557414849188	0.59498837343690
6.9444627750753	0.59498761725475
6.9332205827937	0.59498685935859
6.9220147310090	0.59498609987368
6.9108450437990	0.59498533892581
6.8997113463751	0.59498457664133
6.8886134650735	0.59498381314711
6.8775512273457	0.59498304857049
6.8665244617499	0.59498228303927
6.8555329979419	0.59498151668164
6.8445766666667	0.59498074962621
6.8336552997493	0.59497998200191
6.8227687300865	0.59497921393801
6.8119167916383	0.59497844556405
6.8010993194192	0.59497767700985
6.7903161494904	0.59497690840544
6.7795671189507	0.59497613988102
6.7688520659291	0.59497537156698
6.7581708295762	0.59497460359383
6.7475232500563	0.59497383609215
6.7369091685393	0.59497306919259
6.7263284271932	0.59497230302586
6.7157808691756	0.59497153772261
6.7052663386267	0.59497077341349
6.6947846806610	0.59497001022906
6.6843357413601	0.59496924829980
6.6739193677649	0.59496848775602
6.6635354078684	0.59496772872790
6.6531837106081	0.59496697134539
6.6428641258586	0.59496621573821
6.6325765044248	0.59496546203582
6.6223206980340	0.59496471036739
6.6120965593295	0.59496396086174
6.6019039418630	0.59496321364734
6.5917427000879	0.59496246885225
6.5816126893524	0.59496172660411
6.5715137658922	0.59496098703011
6.5614457868243	0.59496025025693
6.5514086101399	0.59495951641074
6.5414020946978	0.59495878561713
6.5314261002179	0.59495805800113
6.5214804872743	0.59495733368713
6.5115651172893	0.59495661279887
6.5016798525266	0.59495589545942
6.4918245560849	0.59495518179113
6.4819990918919	0.59495447191559
6.4722033246978	0.59495376595363
6.4624371200690	0.59495306402526
6.4527003443823	0.59495236624966
6.4429928648184	0.59495167274514
6.4333145493562	0.59495098362911
6.4236652667667	0.59495029901804
6.4140448866068	0.59494961902744
6.4044532792138	0.59494894377186
6.3948903156997	0.59494827336478
6.3853558679446	0.59494760791868
6.3758498085921	0.59494694754493
6.3663720110427	0.59494629235379
6.3569223494487	0.59494564245440
6.3475006987084	0.59494499795474
6.3381069344609	0.59494435896156
6.3287409330800	0.59494372558043
6.3194025716695	0.59494309791563
6.3100917280572	0.59494247607020
6.3008082807902	0.59494186014585
6.2915521091291	0.59494125024295
6.2823230930427	0.59494064646054
6.2731211132036	0.59494004889624
6.2639460509820	0.59493945764627
6.2547977884415	0.59493887280542
6.2456762083333	0.59493829446699
6.2365811940919	0.59493772272281
6.2275126298297	0.59493715766319
6.2184704003319	0.59493659937688
6.2094543910522	0.59493604795109
6.2004644881075	0.59493550347141
6.1915005782734	0.59493496602183
6.1825625489792	0.59493443568469
6.1736502883031	0.59493391254069
6.1647636849681	0.59493339666882
6.1559026283368	0.59493288814636
6.1470670084068	0.59493238704886
6.1382567158067	0.59493189345014
6.1294716417910	0.59493140742220
6.1207116782360	0.59493092903527
6.1119767176351	0.59493045835775
6.1032666530945	0.59492999545621
6.0945813783289	0.59492954039535
6.0859207876573	0.59492909323798
6.0772847759984	0.59492865404502
6.0686732388664	0.59492822287548
6.0600860723671	0.59492779978639
6.0515231731934	0.59492738483287
6.0429844386212	0.59492697806803
6.0344697665056	0.59492657954299
6.0259790552764	0.59492618930687
6.0175122039342	0.59492580740674
6.0090691120465	0.59492543388764
6.0006496797438	0.59492506879253
5.9922538077154	0.59492471216231
5.9838813972056	0.59492436403577
5.9755323500100	0.59492402444958
5.9672065684713	0.59492369343832
5.9589039554760	0.59492337103438
5.9506244144502	0.59492305726805
5.9423678493558	0.59492275216740
5.9341341646873	0.59492245575836
5.9259232654675	0.59492216806465
5.9177350572444	0.59492188910777
5.9095694460871	0.59492161890703
5.9014263385827	0.59492135747948
5.8933056418321	0.59492110483997
5.8852072634472	0.59492086100105
5.8771311115468	0.59492062597304
5.8690770947533	0.59492039976399
5.8610451221896	0.59492018237965
5.8530351034752	0.59491997382349
5.8450469487229	0.59491977409670
5.8370805685358	0.59491958319813
5.8291358740035	0.59491940112433
5.8212127766990	0.59491922786955
5.8133111886756	0.59491906342569
5.8054310224632	0.59491890778232
5.7975721910656	0.59491876092667
5.7897346079567	0.59491862284363
5.7819181870781	0.59491849351575
5.7741228428351	0.59491837292321
5.7663484900942	0.59491826104384
5.7585950441798	0.59491815785310
5.7508624208709	0.59491806332410
5.7431505363985	0.59491797742759
5.7354593074421	0.59491790013192
5.7277886511272	0.59491783140311
5.7201384850219	0.59491777120477
5.7125087271341	0.59491771949817
5.7048992959087	0.59491767624219
5.6973101102242	0.59491764139335
5.6897410893908	0.59491761490578
5.6821921531463	0.59491759673127
5.6746632216544	0.59491758681923
5.6671542155009	0.59491758511668
5.6596650556919	0.59491759156831
5.6521956636501	0.59491760611644
5.6447459612126	0.59491762870104
5.6373158706281	0.59491765925970
5.6299053145540	0.59491769772770
5.6225142160540	0.59491774403796
5.6151424985952	0.59491779812106
5.6077900860456	0.59491785990525
5.6004569026714	0.59491792931646
5.5931428731343	0.59491800627831
5.5858479224893	0.59491809071209
5.5785719761816	0.59491818253680
5.5713149600446	0.59491828166915
5.5640768002970	0.59491838802356
5.5568574235403	0.59491850151217
5.5496567567568	0.59491862204486
5.5424747273063	0.59491874952925
5.5353112629247	0.59491888387072
5.5281662917204	0.59491902497241
5.5210397421731	0.59491917273523
5.5139315431304	0.59491932705790
5.5068416238060	0.59491948783692
5.4997699137773	0.59491965496663
5.4927163429828	0.59491982833917
5.4856808417200	0.59492000784454
5.4786633406433	0.59492019337060
5.4716637707611	0.59492038480306
5.4646820634342	0.59492058202553
5.4577181503732	0.59492078491953
5.4507719636364	0.59492099336448
5.4438434356274	0.59492120723776
5.4369324990932	0.59492142641467
5.4300390871219	0.59492165076849
5.4231631331404	0.59492188017051
5.4163045709124	0.59492211449000
5.4094633345363	0.59492235359425
5.4026393584430	0.59492259734862
5.3958325773938	0.59492284561651
5.3890429264785	0.59492309825940
5.3822703411131	0.59492335513690
5.3755147570378	0.59492361610671
5.3687761103152	0.59492388102470
5.3620543373278	0.59492414974489
5.3553493747767	0.59492442211950
5.3486611596789	0.59492469799897
5.3419896293656	0.59492497723195
5.3353347214807	0.59492525966536
5.3286963739780	0.59492554514440
5.3220745251198	0.59492583351259
5.3154691134752	0.59492612461175
5.3088800779175	0.59492641828207
5.3023073576229	0.59492671436213
5.2957508920685	0.59492701268891
5.2892106210303	0.59492731309780
5.2826864845815	0.59492761542267
5.2761784230905	0.59492791949588
5.2696863772192	0.59492822514828
5.2632102879213	0.59492853220927
5.2567500964405	0.59492884050681
5.2503057443082	0.59492914986747
5.2438771733427	0.59492946011643
5.2374643256464	0.59492977107752
5.2310671436050	0.59493008257327
5.2246855698850	0.59493039442489
5.2183195474326	0.59493070645235
5.2119690194715	0.59493101847440
5.2056339295016	0.59493133030857
5.1993142212973	0.59493164177123
5.1930098389052	0.59493195267762
5.1867207266436	0.59493226284186
5.1804468290997	0.59493257207700
5.1741880911288	0.59493288019506
5.1679444578521	0.59493318700704
5.1617158746556	0.59493349232296
5.1555022871883	0.59493379595190
5.1493036413604	0.59493409770202
5.1431198833419	0.59493439738063
5.1369509595613	0.59493469479415
5.1307968167037	0.59493498974823
5.1246574017094	0.59493528204773
5.1185326617722	0.59493557149675
5.1124225443383	0.59493585789870
5.1063269971044	0.59493614105633
5.1002459680163	0.59493642077173
5.0941794052676	0.59493669684638
5.0881272572980	0.59493696908123
5.0820894727920	0.59493723727667
5.0760660006773	0.59493750123260
5.0700567901235	0.59493776074845
5.0640617905405	0.59493801562326
5.0580809515775	0.59493826565566
5.0521142231210	0.59493851064393
5.0461615552937	0.59493875038604
5.0402228984533	0.59493898467969
5.0342982031906	0.59493921332233
5.0283874203287	0.59493943611123
5.0224905009214	0.59493965284348
5.0166073962517	0.59493986331604
5.0107380578305	0.59494006732579
5.0048824373957	0.59494026466957
4.9990404869101	0.59494045514419
4.9932121585610	0.59494063854650
4.9873974047579	0.59494081467340
4.9815961781323	0.59494098332191
4.9758084315353	0.59494114428918
4.9700341180371	0.59494129737253
4.9642731909256	0.59494144236953
4.9585256037049	0.59494157907798
4.9527913100942	0.59494170729599
4.9470702640264	0.59494182682200
4.9413624196473	0.59494193745481
4.9356677313138	0.59494203899367
4.9299861535932	0.59494213123824
4.9243176412615	0.59494221398870
4.9186621493027	0.59494228704575
4.9130196329072	0.59494235021067
4.9073900474709	0.59494240328532
4.9017733485939	0.59494244607225
4.8961694920790	0.59494247837465
4.8905784339315	0.59494249999648
4.8850001303569	0.59494251074244
4.8794345377604	0.59494251041804
4.8738816127459	0.59494249882963
4.8683413121143	0.59494247578445
4.8628135928629	0.59494244109067
4.8572984121841	0.59494239455739
4.8517957274640	0.59494233599474
4.8463054962819	0.59494226521388
4.8408276764088	0.59494218202704
4.8353622258065	0.59494208624757
