#Parameters = {thARC=0.2; nARC=1.25; thsub=1; p=1; nSub=4.5}
#"Wavelength / um"	"T (764) [Real Part]"
#---------------------------------------
14.989622900000	0.59649204235807
14.937342202292	0.59655673416881
14.885424925521	0.59661984119409
14.833867293419	0.59668138569146
14.782665581854	0.59674138983691
14.731816117936	0.59679987572245
14.681315279138	0.59685686535367
14.631159492435	0.59691238064739
14.581345233463	0.59696644342938
14.531869025691	0.59701907543200
14.482727439614	0.59707029829202
14.433917091960	0.59712013354842
14.385434644914	0.59716860264018
14.337276805356	0.59721572690421
14.289440324118	0.59726152757327
14.241921995249	0.59730602577390
14.194718655303	0.59734924252444
14.147827182633	0.59739119873311
14.101244496707	0.59743191519602
14.054967557431	0.59747141259537
14.008993364486	0.59750971149758
13.963318956684	0.59754683235149
13.917941411328	0.59758279548662
13.872857843591	0.59761762111147
13.828065405904	0.59765132931183
13.783561287356	0.59768394004914
13.739342713107	0.59771547315891
13.695406943810	0.59774594834919
13.651751275046	0.59777538519901
13.608373036768	0.59780380315694
13.565269592760	0.59783122153965
13.522438340099	0.59785765953049
13.479876708633	0.59788313617820
13.437582160466	0.59790767039550
13.395552189455	0.59793128095789
13.353784320713	0.59795398650238
13.312276110124	0.59797580552629
13.271025143869	0.59799675638606
13.230029037952	0.59801685729619
13.189285437747	0.59803612632809
13.148792017544	0.59805458140904
13.108546480105	0.59807224032121
13.068546556234	0.59808912070065
13.028790004346	0.59810524003635
12.989274610052	0.59812061566937
12.949998185745	0.59813526479191
12.910958570198	0.59814920444653
12.872153628167	0.59816245152537
12.833581250000	0.59817502276929
12.795239351259	0.59818693476727
12.757125872340	0.59819820395562
12.719238778108	0.59820884661736
12.681576057530	0.59821887888161
12.644135723323	0.59822831672297
12.606915811606	0.59823717596098
12.569914381551	0.59824547225960
12.533129515050	0.59825322112670
12.496559316382	0.59826043791362
12.460201911887	0.59826713781473
12.424055449648	0.59827333586705
12.388118099174	0.59827904694988
12.352388051092	0.59828428578446
12.316863516845	0.59828906693368
12.281542728390	0.59829340480179
12.246423937908	0.59829731363419
12.211505417515	0.59830080751721
12.176785458976	0.59830390037790
12.142262373431	0.59830660598392
12.107934491115	0.59830893794337
12.073800161095	0.59831090970475
12.039857751004	0.59831253455685
12.006105646776	0.59831382562872
11.972542252396	0.59831479588967
11.939165989646	0.59831545814927
11.905975297855	0.59831582505741
11.872968633663	0.59831590910435
11.840144470774	0.59831572262083
11.807501299724	0.59831527777816
11.775037627651	0.59831458658841
11.742751978065	0.59831366090454
11.710642890625	0.59831251242062
11.678708920919	0.59831115267205
11.646948640249	0.59830959303576
11.615360635413	0.59830784473053
11.583943508501	0.59830591881726
11.552695876686	0.59830382619927
11.521616372022	0.59830157762265
11.490703641242	0.59829918367660
11.459956345566	0.59829665479383
11.429373160503	0.59829400125093
11.398952775665	0.59829123316885
11.368693894577	0.59828836051325
11.338595234493	0.59828539309504
11.308655526217	0.59828234057084
11.278873513920	0.59827921244347
11.249247954972	0.59827601806246
11.219777619760	0.59827276662464
11.190461291527	0.59826946717465
11.161297766195	0.59826612860553
11.132285852209	0.59826275965933
11.103424370370	0.59825936892770
11.074712153676	0.59825596485254
11.046148047163	0.59825255572664
11.017730907755	0.59824914969435
10.989459604106	0.59824575475223
10.961333016453	0.59824237874979
10.933350036470	0.59823902939019
10.905509567115	0.59823571423095
10.877810522496	0.59823244068468
10.850251827723	0.59822921601991
10.822832418773	0.59822604736176
10.795551242348	0.59822294169282
10.768407255747	0.59821990585389
10.741399426729	0.59821694654480
10.714526733381	0.59821407032526
10.687788163993	0.59821128361571
10.661182716927	0.59820859269811
10.634709400497	0.59820600371687
10.608367232838	0.59820352267970
10.582155241793	0.59820115545850
10.556072464789	0.59819890779025
10.530117948718	0.59819678527794
10.504290749825	0.59819479339149
10.478589933590	0.59819293746866
10.453014574616	0.59819122271602
10.427563756522	0.59818965420990
10.402236571825	0.59818823689732
10.377032121841	0.59818697559702
10.351949516575	0.59818587500038
10.326987874612	0.59818493967247
10.302146323024	0.59818417405299
10.277423997257	0.59818358245732
10.252820041040	0.59818316907752
10.228333606278	0.59818293798337
10.203963852961	0.59818289312337
10.179709949066	0.59818303832581
10.155571070461	0.59818337729980
10.131546400811	0.59818391363632
10.107635131490	0.59818465080930
10.083836461487	0.59818559217666
10.060149597315	0.59818674098141
10.036573752929	0.59818810035270
10.013108149633	0.59818967330691
9.9897520159947	0.59819146274878
9.9665045877660	0.59819347147244
9.9433651077944	0.59819570216255
9.9203328259431	0.59819815739542
9.8974069990096	0.59820083964006
9.8745868906456	0.59820375125936
9.8518717712783	0.59820689451115
9.8292609180328	0.59821027154937
9.8067536146549	0.59821388442518
9.7843491514360	0.59821773508806
9.7620468251384	0.59822182538698
9.7398459389214	0.59822615707153
9.7177458022690	0.59823073179303
9.6957457309185	0.59823555110571
9.6738450467893	0.59824061646781
9.6520430779137	0.59824592924278
9.6303391583681	0.59825149070038
9.6087326282051	0.59825730201784
9.5872228333866	0.59826336428103
9.5658091257179	0.59826967848560
9.5444908627826	0.59827624553814
9.5232674078780	0.59828306625732
9.5021381299525	0.59829014137506
9.4811024035421	0.59829747153769
9.4601596087094	0.59830505730710
9.4393091309824	0.59831289916189
9.4185503612944	0.59832099749857
9.3978826959248	0.59832935263264
9.3773055364404	0.59833796479983
9.3568182896380	0.59834683415722
9.3364203674868	0.59835596078438
9.3161111870727	0.59836534468458
9.2958901705426	0.59837498578588
9.2757567450495	0.59838488394235
9.2557103426984	0.59839503893518
9.2357504004929	0.59840545047385
9.2158763602828	0.59841611819727
9.1960876687117	0.59842704167496
9.1763837771656	0.59843822040816
9.1567641417227	0.59844965383100
9.1372282231027	0.59846134131164
9.1177754866180	0.59847328215342
9.0984054021244	0.59848547559598
9.0791174439733	0.59849792081642
9.0599110909640	0.59851061693042
9.0407858262967	0.59852356299337
9.0217411375263	0.59853675800152
9.0027765165165	0.59855020089310
8.9838914593947	0.59856389054943
8.9650854665072	0.59857782579605
8.9463580423754	0.59859200540383
8.9277086956522	0.59860642809010
8.9091369390788	0.59862109251976
8.8906422894425	0.59863599730634
8.8722242675348	0.59865114101319
8.8538823981099	0.59866652215448
8.8356162098438	0.59868213919637
8.8174252352941	0.59869799055807
8.7993090108600	0.59871407461292
8.7812670767428	0.59873038968947
8.7632989769073	0.59874693407260
8.7454042590432	0.59876370600452
8.7275824745269	0.59878070368591
8.7098331783847	0.59879792527691
8.6921559292549	0.59881536889825
8.6745502893519	0.59883303263224
8.6570158244297	0.59885091452387
8.6395521037464	0.59886901258182
8.6221587000288	0.59888732477948
8.6048351894374	0.59890584905604
8.5875811515325	0.59892458331744
8.5703961692396	0.59894352543746
8.5532798288160	0.59896267325868
8.5362317198178	0.59898202459354
8.5192514350668	0.59900157722526
8.5023385706183	0.59902132890894
8.4854927257288	0.59904127737246
8.4687135028249	0.59906142031750
8.4520005074711	0.59908175542055
8.4353533483399	0.59910228033380
8.4187716371806	0.59912299268619
8.4022549887892	0.59914389008428
8.3858030209790	0.59916497011330
8.3694153545505	0.59918623033799
8.3530916132627	0.59920766830362
8.3368314238042	0.59922928153688
8.3206344157646	0.59925106754680
8.3045002216066	0.59927302382567
8.2884284766381	0.59929514784997
8.2724188189845	0.59931743708124
8.2564708895621	0.59933988896699
8.2405843320506	0.59936250094160
8.2247587928669	0.59938527042714
8.2089939211391	0.59940819483434
8.1932893686800	0.59943127156334
8.1776447899618	0.59945449800465
8.1620598420909	0.59947787153992
8.1465341847826	0.59950138954284
8.1310674803363	0.59952504937991
8.1156593936113	0.59954884841132
8.1003095920022	0.59957278399175
8.0850177454153	0.59959685347116
8.0697835262450	0.59962105419562
8.0546066093498	0.59964538350806
8.0394866720300	0.59966983874912
8.0244233940043	0.59969441725784
8.0094164573871	0.59971911637252
7.9944655466667	0.59974393343140
7.9795703486825	0.59976886577347
7.9647305526036	0.59979391073916
7.9499458499072	0.59981906567111
7.9352159343568	0.59984432791490
7.9205405019815	0.59986969481973
7.9059192510549	0.59989516373916
7.8913518820742	0.59992073203180
7.8768380977404	0.59994639706200
7.8623776029373	0.59997215620052
7.8479701047120	0.59999800682522
7.8336153122550	0.60002394632172
7.8193129368805	0.60004997208406
7.8050626920073	0.60007608151533
7.7908642931393	0.60010227202831
7.7767174578470	0.60012854104613
7.7626219057483	0.60015488600282
7.7485773584906	0.60018130434402
7.7345835397317	0.60020779352748
7.7206401751223	0.60023435102373
7.7067469922879	0.60026097431660
7.6929037208109	0.60028766090386
7.6791100922131	0.60031440829773
7.6653658399386	0.60034121402545
7.6516706993364	0.60036807562984
7.6380244076433	0.60039499066984
7.6244267039674	0.60042195672100
7.6108773292714	0.60044897137605
7.5973760263558	0.60047603224538
7.5839225398432	0.60050313695752
7.5705166161616	0.60053028315970
7.5571580035291	0.60055746851826
7.5438464519376	0.60058469071915
7.5305817131374	0.60061194746839
7.5173635406219	0.60063923649254
7.5041916896120	0.60066655553912
7.4910659170415	0.60069390237707
7.4779859815415	0.60072127479713
7.4649516434263	0.60074867061232
7.4519626646781	0.60077608765830
7.4390188089330	0.60080352379378
7.4261198414664	0.60083097690092
7.4132655291790	0.60085844488567
7.4004556405826	0.60088592567822
7.3876899457861	0.60091341723326
7.3749682164822	0.60094091753040
7.3622902259332	0.60096842457450
7.3496557489581	0.60099593639598
7.3370645619187	0.60102345105115
7.3245164427071	0.60105096662256
7.3120111707317	0.60107848121925
7.2995485269053	0.60110599297707
7.2871282936315	0.60113350005899
7.2747502547925	0.60116100065533
7.2624141957364	0.60118849298406
7.2501199032648	0.60121597529105
7.2378671656205	0.60124344585032
7.2256557724753	0.60127090296428
7.2134855149182	0.60129834496397
7.2013561854432	0.60132577020925
7.1892675779376	0.60135317708906
7.1772194876706	0.60138056402159
7.1652117112811	0.60140792945448
7.1532440467669	0.60143527186502
7.1413162934731	0.60146258976033
7.1294282520809	0.60148988167750
7.1175797245964	0.60151714618376
7.1057705143399	0.60154438187666
7.0940004259347	0.60157158738418
7.0822692652965	0.60159876136487
7.0705768396226	0.60162590250797
7.0589229573817	0.60165300953356
7.0473074283028	0.60168008119261
7.0357300633654	0.60170711626712
7.0241906747891	0.60173411357021
7.0126890760234	0.60176107194617
7.0012250817375	0.60178799027056
6.9897985078107	0.60181486745029
6.9784091713222	0.60184170242362
6.9670568905415	0.60186849416027
6.9557414849188	0.60189524166142
6.9444627750753	0.60192194395975
6.9332205827937	0.60194860011947
6.9220147310090	0.60197520923635
6.9108450437990	0.60200177043769
6.8997113463751	0.60202828288234
6.8886134650735	0.60205474576071
6.8775512273457	0.60208115829471
6.8665244617499	0.60210751973778
6.8555329979419	0.60213382937479
6.8445766666667	0.60216008652207
6.8336552997493	0.60218629052733
6.8227687300865	0.60221244076958
6.8119167916383	0.60223853665912
6.8010993194192	0.60226457763745
6.7903161494904	0.60229056317715
6.7795671189507	0.60231649278188
6.7688520659291	0.60234236598621
6.7581708295762	0.60236818235555
6.7475232500563	0.60239394148607
6.7369091685393	0.60241964300455
6.7263284271932	0.60244528656827
6.7157808691756	0.60247087186489
6.7052663386267	0.60249639861232
6.6947846806610	0.60252186655856
6.6843357413601	0.60254727548158
6.6739193677649	0.60257262518913
6.6635354078684	0.60259791551864
6.6531837106081	0.60262314633698
6.6428641258586	0.60264831754033
6.6325765044248	0.60267342905402
6.6223206980340	0.60269848083227
6.6120965593295	0.60272347285810
6.6019039418630	0.60274840514304
6.5917427000879	0.60277327772699
6.5816126893524	0.60279809067797
6.5715137658922	0.60282284409193
6.5614457868243	0.60284753809252
6.5514086101399	0.60287217283087
6.5414020946978	0.60289674848534
6.5314261002179	0.60292126526131
6.5214804872743	0.60294572339091
6.5115651172893	0.60297012313280
6.5016798525266	0.60299446477187
6.4918245560849	0.60301874861906
6.4819990918919	0.60304297501101
6.4722033246978	0.60306714430986
6.4624371200690	0.60309125690291
6.4527003443823	0.60311531320243
6.4429928648184	0.60313931364530
6.4333145493562	0.60316325869274
6.4236652667667	0.60318714883006
6.4140448866068	0.60321098456632
6.4044532792138	0.60323476643403
6.3948903156997	0.60325849498889
6.3853558679446	0.60328217080942
6.3758498085921	0.60330579449669
6.3663720110427	0.60332936667401
6.3569223494487	0.60335288798656
6.3475006987084	0.60337635910112
6.3381069344609	0.60339978070571
6.3287409330800	0.60342315350927
6.3194025716695	0.60344647824134
6.3100917280572	0.60346975565168
6.3008082807902	0.60349298650997
6.2915521091291	0.60351617160546
6.2823230930427	0.60353931174658
6.2731211132036	0.60356240776067
6.2639460509820	0.60358546049354
6.2547977884415	0.60360847080917
6.2456762083333	0.60363143958933
6.2365811940919	0.60365436773322
6.2275126298297	0.60367725615712
6.2184704003319	0.60370010579401
6.2094543910522	0.60372291759319
6.2004644881075	0.60374569251994
6.1915005782734	0.60376843155512
6.1825625489792	0.60379113569480
6.1736502883031	0.60381380594990
6.1647636849681	0.60383644334580
6.1559026283368	0.60385904892195
6.1470670084068	0.60388162373149
6.1382567158067	0.60390416884089
6.1294716417910	0.60392668532954
6.1207116782360	0.60394917428937
6.1119767176351	0.60397163682445
6.1032666530945	0.60399407405064
6.0945813783289	0.60401648709515
6.0859207876573	0.60403887709620
6.0772847759984	0.60406124520256
6.0686732388664	0.60408359257323
6.0600860723671	0.60410592037702
6.0515231731934	0.60412822979212
6.0429844386212	0.60415052200575
6.0344697665056	0.60417279821377
6.0259790552764	0.60419505962023
6.0175122039342	0.60421730743705
6.0090691120465	0.60423954288354
6.0006496797438	0.60426176718608
5.9922538077154	0.60428398157769
5.9838813972056	0.60430618729762
5.9755323500100	0.60432838559099
5.9672065684713	0.60435057770837
5.9589039554760	0.60437276490538
5.9506244144502	0.60439494844233
5.9423678493558	0.60441712958378
5.9341341646873	0.60443930959819
5.9259232654675	0.60446148975750
5.9177350572444	0.60448367133675
5.9095694460871	0.60450585561368
5.9014263385827	0.60452804386835
5.8933056418321	0.60455023738275
5.8852072634472	0.60457243744042
5.8771311115468	0.60459464532604
5.8690770947533	0.60461686232507
5.8610451221896	0.60463908972335
5.8530351034752	0.60466132880673
5.8450469487229	0.60468358086070
5.8370805685358	0.60470584716997
5.8291358740035	0.60472812901813
5.8212127766990	0.60475042768728
5.8133111886756	0.60477274445764
5.8054310224632	0.60479508060715
5.7975721910656	0.60481743741118
5.7897346079567	0.60483981614207
5.7819181870781	0.60486221806885
5.7741228428351	0.60488464445682
5.7663484900942	0.60490709656721
5.7585950441798	0.60492957565683
5.7508624208709	0.60495208297770
5.7431505363985	0.60497461977669
5.7354593074421	0.60499718729522
5.7277886511272	0.60501978676886
5.7201384850219	0.60504241942699
5.7125087271341	0.60506508649250
5.7048992959087	0.60508778918140
5.6973101102242	0.60511052870252
5.6897410893908	0.60513330625718
5.6821921531463	0.60515612303883
5.6746632216544	0.60517898023275
5.6671542155009	0.60520187901571
5.6596650556919	0.60522482055568
5.6521956636501	0.60524780601148
5.6447459612126	0.60527083653249
5.6373158706281	0.60529391325834
5.6299053145540	0.60531703731857
5.6225142160540	0.60534020983239
5.6151424985952	0.60536343190834
5.6077900860456	0.60538670464400
5.6004569026714	0.60541002912571
5.5931428731343	0.60543340642829
5.5858479224893	0.60545683761472
5.5785719761816	0.60548032373591
5.5713149600446	0.60550386583040
5.5640768002970	0.60552746492409
5.5568574235403	0.60555112203000
5.5496567567568	0.60557483814795
5.5424747273063	0.60559861426436
5.5353112629247	0.60562245135198
5.5281662917204	0.60564635036963
5.5210397421731	0.60567031226196
5.5139315431304	0.60569433795922
5.5068416238060	0.60571842837701
5.4997699137773	0.60574258441607
5.4927163429828	0.60576680696201
5.4856808417200	0.60579109688514
5.4786633406433	0.60581545504024
5.4716637707611	0.60583988226632
5.4646820634342	0.60586437938643
5.4577181503732	0.60588894720748
5.4507719636364	0.60591358651999
5.4438434356274	0.60593829809795
5.4369324990932	0.60596308269860
5.4300390871219	0.60598794106225
5.4231631331404	0.60601287391211
5.4163045709124	0.60603788195413
5.4094633345363	0.60606296587678
5.4026393584430	0.60608812635096
5.3958325773938	0.60611336402978
5.3890429264785	0.60613867954843
5.3822703411131	0.60616407352404
5.3755147570378	0.60618954655554
5.3687761103152	0.60621509922349
5.3620543373278	0.60624073208999
5.3553493747767	0.60626644569851
5.3486611596789	0.60629224057381
5.3419896293656	0.60631811722180
5.3353347214807	0.60634407612943
5.3286963739780	0.60637011776458
5.3220745251198	0.60639624257599
5.3154691134752	0.60642245099311
5.3088800779175	0.60644874342606
5.3023073576229	0.60647512026552
5.2957508920685	0.60650158188267
5.2892106210303	0.60652812862909
5.2826864845815	0.60655476083671
5.2761784230905	0.60658147881774
5.2696863772192	0.60660828286463
5.2632102879213	0.60663517324997
5.2567500964405	0.60666215022651
5.2503057443082	0.60668921402708
5.2438771733427	0.60671636486456
5.2374643256464	0.60674360293183
5.2310671436050	0.60677092840179
5.2246855698850	0.60679834142731
5.2183195474326	0.60682584214122
5.2119690194715	0.60685343065631
5.2056339295016	0.60688110706533
5.1993142212973	0.60690887144096
5.1930098389052	0.60693672383586
5.1867207266436	0.60696466428268
5.1804468290997	0.60699269279405
5.1741880911288	0.60702080936263
5.1679444578521	0.60704901396111
5.1617158746556	0.60707730654231
5.1555022871883	0.60710568703913
5.1493036413604	0.60713415536469
5.1431198833419	0.60716271141231
5.1369509595613	0.60719135505559
5.1307968167037	0.60722008614850
5.1246574017094	0.60724890452541
5.1185326617722	0.60727781000117
5.1124225443383	0.60730680237123
5.1063269971044	0.60733588141165
5.1002459680163	0.60736504687925
5.0941794052676	0.60739429851170
5.0881272572980	0.60742363602758
5.0820894727920	0.60745305912652
5.0760660006773	0.60748256748930
5.0700567901235	0.60751216077798
5.0640617905405	0.60754183863598
5.0580809515775	0.60757160068826
5.0521142231210	0.60760144654140
5.0461615552937	0.60763137578377
5.0402228984533	0.60766138798567
5.0342982031906	0.60769148269946
5.0283874203287	0.60772165945971
5.0224905009214	0.60775191778338
5.0166073962517	0.60778225716994
5.0107380578305	0.60781267710159
5.0048824373957	0.60784317704338
4.9990404869101	0.60787375644342
4.9932121585610	0.60790441473304
4.9873974047579	0.60793515132699
4.9815961781323	0.60796596562362
4.9758084315353	0.60799685700506
4.9700341180371	0.60802782483745
4.9642731909256	0.60805886847115
4.9585256037049	0.60808998724088
4.9527913100942	0.60812118046602
4.9470702640264	0.60815244745078
4.9413624196473	0.60818378748440
4.9356677313138	0.60821519984143
4.9299861535932	0.60824668378195
4.9243176412615	0.60827823855174
4.9186621493027	0.60830986338261
4.9130196329072	0.60834155749258
4.9073900474709	0.60837332008615
4.9017733485939	0.60840515035455
4.8961694920790	0.60843704747598
4.8905784339315	0.60846901061591
4.8850001303569	0.60850103892728
4.8794345377604	0.60853313155081
4.8738816127459	0.60856528761527
4.8683413121143	0.60859750623774
4.8628135928629	0.60862978652388
4.8572984121841	0.60866212756824
4.8517957274640	0.60869452845451
4.8463054962819	0.60872698825583
4.8408276764088	0.60875950603509
4.8353622258065	0.60879208084520
