#Parameters = {thARC=0.6; nARC=1.75; thsub=1; p=1; nSub=1.25}
#"Wavelength / um"	"T (76) [Real Part]"
#--------------------------------------
14.989622900000	0.95313008144189
14.937342202292	0.95300534931443
14.885424925521	0.95287862522223
14.833867293419	0.95274992346643
14.782665581854	0.95261925834549
14.731816117936	0.95248664415435
14.681315279138	0.95235209518360
14.631159492435	0.95221562571873
14.581345233463	0.95207725003926
14.531869025691	0.95193698241801
14.482727439614	0.95179483712025
14.433917091960	0.95165082840295
14.385434644914	0.95150497051400
14.337276805356	0.95135727769145
14.289440324118	0.95120776416270
14.241921995249	0.95105644414380
14.194718655303	0.95090333183864
14.147827182633	0.95074844143825
14.101244496707	0.95059178712003
14.054967557431	0.95043338304703
14.008993364486	0.95027324336721
13.963318956684	0.95011138221275
13.917941411328	0.94994781369927
13.872857843591	0.94978255192521
13.828065405904	0.94961561097102
13.783561287356	0.94944700489858
13.739342713107	0.94927674775042
13.695406943810	0.94910485354908
13.651751275046	0.94893133629642
13.608373036768	0.94875620997296
13.565269592760	0.94857948853720
13.522438340099	0.94840118592498
13.479876708633	0.94822131604882
13.437582160466	0.94803989279728
13.395552189455	0.94785693003432
13.353784320713	0.94767244159868
13.312276110124	0.94748644130323
13.271025143869	0.94729894293438
13.230029037952	0.94710996025146
13.189285437747	0.94691950698612
13.148792017544	0.94672759684172
13.108546480105	0.94653424349274
13.068546556234	0.94633946058423
13.028790004346	0.94614326173118
12.989274610052	0.94594566051799
12.949998185745	0.94574667049790
12.910958570198	0.94554630519241
12.872153628167	0.94534457809075
12.833581250000	0.94514150264933
12.795239351259	0.94493709229122
12.757125872340	0.94473136040559
12.719238778108	0.94452432034721
12.681576057530	0.94431598543591
12.644135723323	0.94410636895610
12.606915811606	0.94389548415626
12.569914381551	0.94368334424841
12.533129515050	0.94346996240766
12.496559316382	0.94325535177171
12.460201911887	0.94303952544038
12.424055449648	0.94282249647512
12.388118099174	0.94260427789858
12.352388051092	0.94238488269414
12.316863516845	0.94216432380542
12.281542728390	0.94194261413591
12.246423937908	0.94171976654848
12.211505417515	0.94149579386496
12.176785458976	0.94127070886574
12.142262373431	0.94104452428931
12.107934491115	0.94081725283190
12.073800161095	0.94058890714702
12.039857751004	0.94035949984513
12.006105646776	0.94012904349319
11.972542252396	0.93989755061428
11.939165989646	0.93966503368727
11.905975297855	0.93943150514641
11.872968633663	0.93919697738097
11.840144470774	0.93896146273487
11.807501299724	0.93872497350636
11.775037627651	0.93848752194765
11.742751978065	0.93824912026457
11.710642890625	0.93800978061625
11.678708920919	0.93776951511478
11.646948640249	0.93752833582489
11.615360635413	0.93728625476365
11.583943508501	0.93704328390014
11.552695876686	0.93679943515517
11.521616372022	0.93655472040096
11.490703641242	0.93630915146088
11.459956345566	0.93606274010911
11.429373160503	0.93581549807045
11.398952775665	0.93556743701997
11.368693894577	0.93531856858277
11.338595234493	0.93506890433374
11.308655526217	0.93481845579727
11.278873513920	0.93456723444704
11.249247954972	0.93431525170574
11.219777619760	0.93406251894488
11.190461291527	0.93380904748450
11.161297766195	0.93355484859299
11.132285852209	0.93329993348686
11.103424370370	0.93304431333054
11.074712153676	0.93278799923613
11.046148047163	0.93253100226325
11.017730907755	0.93227333341880
10.989459604106	0.93201500365681
10.961333016453	0.93175602387821
10.933350036470	0.93149640493071
10.905509567115	0.93123615760854
10.877810522496	0.93097529265239
10.850251827723	0.93071382074914
10.822832418773	0.93045175253179
10.795551242348	0.93018909857924
10.768407255747	0.92992586941618
10.741399426729	0.92966207551294
10.714526733381	0.92939772728537
10.687788163993	0.92913283509466
10.661182716927	0.92886740924727
10.634709400497	0.92860145999477
10.608367232838	0.92833499753376
10.582155241793	0.92806803200570
10.556072464789	0.92780057349688
10.530117948718	0.92753263203825
10.504290749825	0.92726421760538
10.478589933590	0.92699534011831
10.453014574616	0.92672600944154
10.427563756522	0.92645623538385
10.402236571825	0.92618602769833
10.377032121841	0.92591539608223
10.351949516575	0.92564435017691
10.326987874612	0.92537289956781
10.302146323024	0.92510105378435
10.277423997257	0.92482882229989
10.252820041040	0.92455621453172
10.228333606278	0.92428323984093
10.203963852961	0.92400990753245
10.179709949066	0.92373622685500
10.155571070461	0.92346220700100
10.131546400811	0.92318785710663
10.107635131490	0.92291318625174
10.083836461487	0.92263820345986
10.060149597315	0.92236291769819
10.036573752929	0.92208733787758
10.013108149633	0.92181147285253
9.9897520159947	0.92153533142117
9.9665045877660	0.92125892232528
9.9433651077944	0.92098225425033
9.9203328259431	0.92070533582539
9.8974069990096	0.92042817562328
9.8745868906456	0.92015078216045
9.8518717712783	0.91987316389713
9.8292609180328	0.91959532923725
9.8067536146549	0.91931728652853
9.7843491514360	0.91903904406252
9.7620468251384	0.91876061007458
9.7398459389214	0.91848199274398
9.7177458022690	0.91820320019391
9.6957457309185	0.91792424049155
9.6738450467893	0.91764512164811
9.6520430779137	0.91736585161888
9.6303391583681	0.91708643830330
9.6087326282051	0.91680688954501
9.5872228333866	0.91652721313194
9.5658091257179	0.91624741679633
9.5444908627826	0.91596750821488
9.5232674078780	0.91568749500874
9.5021381299525	0.91540738474364
9.4811024035421	0.91512718492996
9.4601596087094	0.91484690302282
9.4393091309824	0.91456654642217
9.4185503612944	0.91428612247286
9.3978826959248	0.91400563846474
9.3773055364404	0.91372510163280
9.3568182896380	0.91344451915720
9.3364203674868	0.91316389816344
9.3161111870727	0.91288324572241
9.2958901705426	0.91260256885055
9.2757567450495	0.91232187450991
9.2557103426984	0.91204116960832
9.2357504004929	0.91176046099947
9.2158763602828	0.91147975548301
9.1960876687117	0.91119905980475
9.1763837771656	0.91091838065670
9.1567641417227	0.91063772467726
9.1372282231027	0.91035709845131
9.1177754866180	0.91007650851036
9.0984054021244	0.90979596133269
9.0791174439733	0.90951546334350
9.0599110909640	0.90923502091499
9.0407858262967	0.90895464036659
9.0217411375263	0.90867432796505
9.0027765165165	0.90839408992457
8.9838914593947	0.90811393240703
8.9650854665072	0.90783386152205
8.9463580423754	0.90755388332721
8.9277086956522	0.90727400382818
8.9091369390788	0.90699422897886
8.8906422894425	0.90671456468158
8.8722242675348	0.90643501678726
8.8538823981099	0.90615559109553
8.8356162098438	0.90587629335496
8.8174252352941	0.90559712926316
8.7993090108600	0.90531810446701
8.7812670767428	0.90503922456282
8.7632989769073	0.90476049509647
8.7454042590432	0.90448192156363
8.7275824745269	0.90420350940991
8.7098331783847	0.90392526403107
8.6921559292549	0.90364719077316
8.6745502893519	0.90336929493274
8.6570158244297	0.90309158175704
8.6395521037464	0.90281405644419
8.6221587000288	0.90253672414335
8.6048351894374	0.90225958995493
8.5875811515325	0.90198265893080
8.5703961692396	0.90170593607444
8.5532798288160	0.90142942634119
8.5362317198178	0.90115313463840
8.5192514350668	0.90087706582563
8.5023385706183	0.90060122471490
8.4854927257288	0.90032561607083
8.4687135028249	0.90005024461087
8.4520005074711	0.89977511500551
8.4353533483399	0.89950023187847
8.4187716371806	0.89922559980692
8.4022549887892	0.89895122332168
8.3858030209790	0.89867710690742
8.3694153545505	0.89840325500289
8.3530916132627	0.89812967200111
8.3368314238042	0.89785636224962
8.3206344157646	0.89758333005063
8.3045002216066	0.89731057966129
8.2884284766381	0.89703811529391
8.2724188189845	0.89676594111611
8.2564708895621	0.89649406125111
8.2405843320506	0.89622247977792
8.2247587928669	0.89595120073156
8.2089939211391	0.89568022810328
8.1932893686800	0.89540956584077
8.1776447899618	0.89513921784843
8.1620598420909	0.89486918798753
8.1465341847826	0.89459948007647
8.1310674803363	0.89433009789101
8.1156593936113	0.89406104516448
8.1003095920022	0.89379232558802
8.0850177454153	0.89352394281079
8.0697835262450	0.89325590044021
8.0546066093498	0.89298820204220
8.0394866720300	0.89272085114138
8.0244233940043	0.89245385122133
8.0094164573871	0.89218720572481
7.9944655466667	0.89192091805399
7.9795703486825	0.89165499157068
7.9647305526036	0.89138942959657
7.9499458499072	0.89112423541345
7.9352159343568	0.89085941226349
7.9205405019815	0.89059496334939
7.9059192510549	0.89033089183470
7.8913518820742	0.89006720084400
7.8768380977404	0.88980389346317
7.8623776029373	0.88954097273960
7.8479701047120	0.88927844168246
7.8336153122550	0.88901630326289
7.8193129368805	0.88875456041428
7.8050626920073	0.88849321603250
7.7908642931393	0.88823227297611
7.7767174578470	0.88797173406664
7.7626219057483	0.88771160208881
7.7485773584906	0.88745187979075
7.7345835397317	0.88719256988427
7.7206401751223	0.88693367504509
7.7067469922879	0.88667519791308
7.6929037208109	0.88641714109250
7.6791100922131	0.88615950715222
7.6653658399386	0.88590229862601
7.6516706993364	0.88564551801274
7.6380244076433	0.88538916777662
7.6244267039674	0.88513325034747
7.6108773292714	0.88487776812094
7.5973760263558	0.88462272345876
7.5839225398432	0.88436811868897
7.5705166161616	0.88411395610617
7.5571580035291	0.88386023797178
7.5438464519376	0.88360696651425
7.5305817131374	0.88335414392930
7.5173635406219	0.88310177238021
7.5041916896120	0.88284985399801
7.4910659170415	0.88259839088173
7.4779859815415	0.88234738509866
7.4649516434263	0.88209683868461
7.4519626646781	0.88184675364409
7.4390188089330	0.88159713195060
7.4261198414664	0.88134797554686
7.4132655291790	0.88109928634505
7.4004556405826	0.88085106622705
7.3876899457861	0.88060331704467
7.3749682164822	0.88035604061992
7.3622902259332	0.88010923874523
7.3496557489581	0.87986291318368
7.3370645619187	0.87961706566927
7.3245164427071	0.87937169790714
7.3120111707317	0.87912681157381
7.2995485269053	0.87888240831743
7.2871282936315	0.87863848975801
7.2747502547925	0.87839505748766
7.2624141957364	0.87815211307083
7.2501199032648	0.87790965804455
7.2378671656205	0.87766769391869
7.2256557724753	0.87742622217614
7.2134855149182	0.87718524427311
7.2013561854432	0.87694476163934
7.1892675779376	0.87670477567832
7.1772194876706	0.87646528776758
7.1652117112811	0.87622629925884
7.1532440467669	0.87598781147835
7.1413162934731	0.87574982572705
7.1294282520809	0.87551234328081
7.1175797245964	0.87527536539073
7.1057705143399	0.87503889328328
7.0940004259347	0.87480292816061
7.0822692652965	0.87456747120074
7.0705768396226	0.87433252355783
7.0589229573817	0.87409808636236
7.0473074283028	0.87386416072143
7.0357300633654	0.87363074771891
7.0241906747891	0.87339784841576
7.0126890760234	0.87316546385019
7.0012250817375	0.87293359503792
6.9897985078107	0.87270224297241
6.9784091713222	0.87247140862510
6.9670568905415	0.87224109294560
6.9557414849188	0.87201129686196
6.9444627750753	0.87178202128086
6.9332205827937	0.87155326708789
6.9220147310090	0.87132503514772
6.9108450437990	0.87109732630434
6.8997113463751	0.87087014138133
6.8886134650735	0.87064348118202
6.8775512273457	0.87041734648975
6.8665244617499	0.87019173806809
6.8555329979419	0.86996665666107
6.8445766666667	0.86974210299337
6.8336552997493	0.86951807777058
6.8227687300865	0.86929458167941
6.8119167916383	0.86907161538789
6.8010993194192	0.86884917954561
6.7903161494904	0.86862727478394
6.7795671189507	0.86840590171625
6.7688520659291	0.86818506093809
6.7581708295762	0.86796475302746
6.7475232500563	0.86774497854502
6.7369091685393	0.86752573803425
6.7263284271932	0.86730703202173
6.7157808691756	0.86708886101732
6.7052663386267	0.86687122551439
6.6947846806610	0.86665412599002
6.6843357413601	0.86643756290522
6.6739193677649	0.86622153670512
6.6635354078684	0.86600604781924
6.6531837106081	0.86579109666161
6.6428641258586	0.86557668363106
6.6325765044248	0.86536280911140
6.6223206980340	0.86514947347159
6.6120965593295	0.86493667706602
6.6019039418630	0.86472442023465
6.5917427000879	0.86451270330326
6.5816126893524	0.86430152658363
6.5715137658922	0.86409089037374
6.5614457868243	0.86388079495799
6.5514086101399	0.86367124060742
6.5414020946978	0.86346222757984
6.5314261002179	0.86325375612012
6.5214804872743	0.86304582646032
6.5115651172893	0.86283843881992
6.5016798525266	0.86263159340604
6.4918245560849	0.86242529041356
6.4819990918919	0.86221953002543
6.4722033246978	0.86201431241274
6.4624371200690	0.86180963773503
6.4527003443823	0.86160550614040
6.4429928648184	0.86140191776574
6.4333145493562	0.86119887273692
6.4236652667667	0.86099637116899
6.4140448866068	0.86079441316633
6.4044532792138	0.86059299882290
6.3948903156997	0.86039212822236
6.3853558679446	0.86019180143833
6.3758498085921	0.85999201853451
6.3663720110427	0.85979277956492
6.3569223494487	0.85959408457406
6.3475006987084	0.85939593359707
6.3381069344609	0.85919832665997
6.3287409330800	0.85900126377979
6.3194025716695	0.85880474496480
6.3100917280572	0.85860877021463
6.3008082807902	0.85841333952050
6.2915521091291	0.85821845286539
6.2823230930427	0.85802411022420
6.2731211132036	0.85783031156393
6.2639460509820	0.85763705684388
6.2547977884415	0.85744434601578
6.2456762083333	0.85725217902403
6.2365811940919	0.85706055580580
6.2275126298297	0.85686947629126
6.2184704003319	0.85667894040371
6.2094543910522	0.85648894805978
6.2004644881075	0.85629949916958
6.1915005782734	0.85611059363689
6.1825625489792	0.85592223135929
6.1736502883031	0.85573441222838
6.1647636849681	0.85554713612989
6.1559026283368	0.85536040294388
6.1470670084068	0.85517421254489
6.1382567158067	0.85498856480212
6.1294716417910	0.85480345957954
6.1207116782360	0.85461889673614
6.1119767176351	0.85443487612600
6.1032666530945	0.85425139759850
6.0945813783289	0.85406846099846
6.0859207876573	0.85388606616630
6.0772847759984	0.85370421293820
6.0686732388664	0.85352290114626
6.0600860723671	0.85334213061863
6.0515231731934	0.85316190117968
6.0429844386212	0.85298221265016
6.0344697665056	0.85280306484731
6.0259790552764	0.85262445758509
6.0175122039342	0.85244639067423
6.0090691120465	0.85226886392245
6.0006496797438	0.85209187713458
5.9922538077154	0.85191543011271
5.9838813972056	0.85173952265633
5.9755323500100	0.85156415456247
5.9672065684713	0.85138932562585
5.9589039554760	0.85121503563904
5.9506244144502	0.85104128439256
5.9423678493558	0.85086807167504
5.9341341646873	0.85069539727338
5.9259232654675	0.85052326097285
5.9177350572444	0.85035166255725
5.9095694460871	0.85018060180902
5.9014263385827	0.85001007850943
5.8933056418321	0.84984009243864
5.8852072634472	0.84967064337590
5.8771311115468	0.84950173109961
5.8690770947533	0.84933335538754
5.8610451221896	0.84916551601686
5.8530351034752	0.84899821276436
5.8450469487229	0.84883144540651
5.8370805685358	0.84866521371961
5.8291358740035	0.84849951747993
5.8212127766990	0.84833435646382
5.8133111886756	0.84816973044780
5.8054310224632	0.84800563920877
5.7975721910656	0.84784208252402
5.7897346079567	0.84767906017145
5.7819181870781	0.84751657192961
5.7741228428351	0.84735461757788
5.7663484900942	0.84719319689653
5.7585950441798	0.84703230966689
5.7508624208709	0.84687195567143
5.7431505363985	0.84671213469387
5.7354593074421	0.84655284651931
5.7277886511272	0.84639409093435
5.7201384850219	0.84623586772716
5.7125087271341	0.84607817668765
5.7048992959087	0.84592101760751
5.6973101102242	0.84576439028036
5.6897410893908	0.84560829450187
5.6821921531463	0.84545273006980
5.6746632216544	0.84529769678418
5.6671542155009	0.84514319444735
5.6596650556919	0.84498922286413
5.6521956636501	0.84483578184184
5.6447459612126	0.84468287119045
5.6373158706281	0.84453049072269
5.6299053145540	0.84437864025410
5.6225142160540	0.84422731960318
5.6151424985952	0.84407652859142
5.6077900860456	0.84392626704348
5.6004569026714	0.84377653478719
5.5931428731343	0.84362733165372
5.5858479224893	0.84347865747763
5.5785719761816	0.84333051209697
5.5713149600446	0.84318289535336
5.5640768002970	0.84303580709209
5.5568574235403	0.84288924716220
5.5496567567568	0.84274321541659
5.5424747273063	0.84259771171206
5.5353112629247	0.84245273590942
5.5281662917204	0.84230828787357
5.5210397421731	0.84216436747359
5.5139315431304	0.84202097458280
5.5068416238060	0.84187810907887
5.4997699137773	0.84173577084384
5.4927163429828	0.84159395976429
5.4856808417200	0.84145267573131
5.4786633406433	0.84131191864066
5.4716637707611	0.84117168839281
5.4646820634342	0.84103198489299
5.4577181503732	0.84089280805131
5.4507719636364	0.84075415778280
5.4438434356274	0.84061603400748
5.4369324990932	0.84047843665045
5.4300390871219	0.84034136564192
5.4231631331404	0.84020482091732
5.4163045709124	0.84006880241734
5.4094633345363	0.83993331008799
5.4026393584430	0.83979834388067
5.3958325773938	0.83966390375226
5.3890429264785	0.83952998966513
5.3822703411131	0.83939660158722
5.3755147570378	0.83926373949214
5.3687761103152	0.83913140335915
5.3620543373278	0.83899959317330
5.3553493747767	0.83886830892541
5.3486611596789	0.83873755061218
5.3419896293656	0.83860731823621
5.3353347214807	0.83847761180610
5.3286963739780	0.83834843133642
5.3220745251198	0.83821977684784
5.3154691134752	0.83809164836713
5.3088800779175	0.83796404592725
5.3023073576229	0.83783696956736
5.2957508920685	0.83771041933286
5.2892106210303	0.83758439527550
5.2826864845815	0.83745889745333
5.2761784230905	0.83733392593082
5.2696863772192	0.83720948077888
5.2632102879213	0.83708556207488
5.2567500964405	0.83696216990271
5.2503057443082	0.83683930435282
5.2438771733427	0.83671696552223
5.2374643256464	0.83659515351462
5.2310671436050	0.83647386844031
5.2246855698850	0.83635311041634
5.2183195474326	0.83623287956645
5.2119690194715	0.83611317602119
5.2056339295016	0.83599399991786
5.1993142212973	0.83587535140063
5.1930098389052	0.83575723062050
5.1867207266436	0.83563963773535
5.1804468290997	0.83552257291001
5.1741880911288	0.83540603631619
5.1679444578521	0.83529002813262
5.1617158746556	0.83517454854499
5.1555022871883	0.83505959774601
5.1493036413604	0.83494517593541
5.1431198833419	0.83483128332000
5.1369509595613	0.83471792011363
5.1307968167037	0.83460508653728
5.1246574017094	0.83449278281902
5.1185326617722	0.83438100919405
5.1124225443383	0.83426976590473
5.1063269971044	0.83415905320056
5.1002459680163	0.83404887133823
5.0941794052676	0.83393922058160
5.0881272572980	0.83383010120175
5.0820894727920	0.83372151347696
5.0760660006773	0.83361345769271
5.0700567901235	0.83350593414174
5.0640617905405	0.83339894312401
5.0580809515775	0.83329248494671
5.0521142231210	0.83318655992431
5.0461615552937	0.83308116837851
5.0402228984533	0.83297631063827
5.0342982031906	0.83287198703982
5.0283874203287	0.83276819792663
5.0224905009214	0.83266494364945
5.0166073962517	0.83256222456630
5.0107380578305	0.83246004104244
5.0048824373957	0.83235839345040
4.9990404869101	0.83225728216995
4.9932121585610	0.83215670758815
4.9873974047579	0.83205667009925
4.9815961781323	0.83195717010479
4.9758084315353	0.83185820801350
4.9700341180371	0.83175978424138
4.9642731909256	0.83166189921160
4.9585256037049	0.83156455335456
4.9527913100942	0.83146774710785
4.9470702640264	0.83137148091623
4.9413624196473	0.83127575523164
4.9356677313138	0.83118057051318
4.9299861535932	0.83108592722707
4.9243176412615	0.83099182584666
4.9186621493027	0.83089826685241
4.9130196329072	0.83080525073187
4.9073900474709	0.83071277797964
4.9017733485939	0.83062084909740
4.8961694920790	0.83052946459382
4.8905784339315	0.83043862498462
4.8850001303569	0.83034833079246
4.8794345377604	0.83025858254699
4.8738816127459	0.83016938078478
4.8683413121143	0.83008072604930
4.8628135928629	0.82999261889093
4.8572984121841	0.82990505986689
4.8517957274640	0.82981804954121
4.8463054962819	0.82973158848473
4.8408276764088	0.82964567727507
4.8353622258065	0.82956031649656
