#Parameters = {thARC=0; nARC=2; thsub=1; p=1; nSub=4.5}
#"Wavelength / um"	"T (781) [Real Part]"
#---------------------------------------
14.989622900000	0.59504084803645
14.937342202292	0.59508454592768
14.885424925521	0.59512695510552
14.833867293419	0.59516809361302
14.782665581854	0.59520797940857
14.731816117936	0.59524663036439
14.681315279138	0.59528406426503
14.631159492435	0.59532029880588
14.581345233463	0.59535535159174
14.531869025691	0.59538924013543
14.482727439614	0.59542198185636
14.433917091960	0.59545359407926
14.385434644914	0.59548409403276
14.337276805356	0.59551349884820
14.289440324118	0.59554182555828
14.241921995249	0.59556909109590
14.194718655303	0.59559531229292
14.147827182633	0.59562050587898
14.101244496707	0.59564468848038
14.054967557431	0.59566787661894
14.008993364486	0.59569008671095
13.963318956684	0.59571133506608
13.917941411328	0.59573163788636
13.872857843591	0.59575101126517
13.828065405904	0.59576947118630
13.783561287356	0.59578703352297
13.739342713107	0.59580371403694
13.695406943810	0.59581952837760
13.651751275046	0.59583449208113
13.608373036768	0.59584862056966
13.565269592760	0.59586192915045
13.522438340099	0.59587443301515
13.479876708633	0.59588614723900
13.437582160466	0.59589708678015
13.395552189455	0.59590726647892
13.353784320713	0.59591670105720
13.312276110124	0.59592540511769
13.271025143869	0.59593339314342
13.230029037952	0.59594067949704
13.189285437747	0.59594727842033
13.148792017544	0.59595320403360
13.108546480105	0.59595847033523
13.068546556234	0.59596309120115
13.028790004346	0.59596708038436
12.989274610052	0.59597045151453
12.949998185745	0.59597321809755
12.910958570198	0.59597539351513
12.872153628167	0.59597699102446
12.833581250000	0.59597802375787
12.795239351259	0.59597850472246
12.757125872340	0.59597844679986
12.719238778108	0.59597786274591
12.681576057530	0.59597676519044
12.644135723323	0.59597516663701
12.606915811606	0.59597307946274
12.569914381551	0.59597051591809
12.533129515050	0.59596748812671
12.496559316382	0.59596400808530
12.460201911887	0.59596008766350
12.424055449648	0.59595573860378
12.388118099174	0.59595097252134
12.352388051092	0.59594580090410
12.316863516845	0.59594023511262
12.281542728390	0.59593428638012
12.246423937908	0.59592796581244
12.211505417515	0.59592128438811
12.176785458976	0.59591425295834
12.142262373431	0.59590688224715
12.107934491115	0.59589918285137
12.073800161095	0.59589116524082
12.039857751004	0.59588283975834
12.006105646776	0.59587421662001
11.972542252396	0.59586530591527
11.939165989646	0.59585611760704
11.905975297855	0.59584666153202
11.872968633663	0.59583694740079
11.840144470774	0.59582698479808
11.807501299724	0.59581678318302
11.775037627651	0.59580635188938
11.742751978065	0.59579570012582
11.710642890625	0.59578483697622
11.678708920919	0.59577377139998
11.646948640249	0.59576251223229
11.615360635413	0.59575106818452
11.583943508501	0.59573944784456
11.552695876686	0.59572765967714
11.521616372022	0.59571571202429
11.490703641242	0.59570361310563
11.459956345566	0.59569137101888
11.429373160503	0.59567899374021
11.398952775665	0.59566648912470
11.368693894577	0.59565386490679
11.338595234493	0.59564112870074
11.308655526217	0.59562828800109
11.278873513920	0.59561535018317
11.249247954972	0.59560232250357
11.219777619760	0.59558921210068
11.190461291527	0.59557602599519
11.161297766195	0.59556277109065
11.132285852209	0.59554945417397
11.103424370370	0.59553608191602
11.074712153676	0.59552266087220
11.046148047163	0.59550919748299
11.017730907755	0.59549569807454
10.989459604106	0.59548216885929
10.961333016453	0.59546861593659
10.933350036470	0.59545504529329
10.905509567115	0.59544146280436
10.877810522496	0.59542787423358
10.850251827723	0.59541428523414
10.822832418773	0.59540070134932
10.795551242348	0.59538712801317
10.768407255747	0.59537357055112
10.741399426729	0.59536003418076
10.714526733381	0.59534652401244
10.687788163993	0.59533304505004
10.661182716927	0.59531960219162
10.634709400497	0.59530620023017
10.608367232838	0.59529284385434
10.582155241793	0.59527953764913
10.556072464789	0.59526628609665
10.530117948718	0.59525309357688
10.504290749825	0.59523996436837
10.478589933590	0.59522690264907
10.453014574616	0.59521391249700
10.427563756522	0.59520099789111
10.402236571825	0.59518816271200
10.377032121841	0.59517541074269
10.351949516575	0.59516274566947
10.326987874612	0.59515017108260
10.302146323024	0.59513769047720
10.277423997257	0.59512530725399
10.252820041040	0.59511302472008
10.228333606278	0.59510084608987
10.203963852961	0.59508877448576
10.179709949066	0.59507681293904
10.155571070461	0.59506496439069
10.131546400811	0.59505323169218
10.107635131490	0.59504161760635
10.083836461487	0.59503012480823
10.060149597315	0.59501875588585
10.036573752929	0.59500751334110
10.013108149633	0.59499639959061
9.9897520159947	0.59498541696652
9.9665045877660	0.59497456771739
9.9433651077944	0.59496385400905
9.9203328259431	0.59495327792542
9.8974069990096	0.59494284146941
9.8745868906456	0.59493254656375
9.8518717712783	0.59492239505185
9.8292609180328	0.59491238869869
9.8067536146549	0.59490252919168
9.7843491514360	0.59489281814151
9.7620468251384	0.59488325708301
9.7398459389214	0.59487384747607
9.7177458022690	0.59486459070645
9.6957457309185	0.59485548808672
9.6738450467893	0.59484654085705
9.6520430779137	0.59483775018617
9.6303391583681	0.59482911717218
9.6087326282051	0.59482064284346
9.5872228333866	0.59481232815954
9.5658091257179	0.59480417401197
9.5444908627826	0.59479618122520
9.5232674078780	0.59478835055746
9.5021381299525	0.59478068270162
9.4811024035421	0.59477317828609
9.4601596087094	0.59476583787569
9.4393091309824	0.59475866197250
9.4185503612944	0.59475165101677
9.3978826959248	0.59474480538777
9.3773055364404	0.59473812540469
9.3568182896380	0.59473161132749
9.3364203674868	0.59472526335775
9.3161111870727	0.59471908163959
9.2958901705426	0.59471306626053
9.2757567450495	0.59470721725231
9.2557103426984	0.59470153459181
9.2357504004929	0.59469601820189
9.2158763602828	0.59469066795227
9.1960876687117	0.59468548366036
9.1763837771656	0.59468046509215
9.1567641417227	0.59467561196305
9.1372282231027	0.59467092393876
9.1177754866180	0.59466640063610
9.0984054021244	0.59466204162390
9.0791174439733	0.59465784642380
9.0599110909640	0.59465381451114
9.0407858262967	0.59464994531577
9.0217411375263	0.59464623822291
9.0027765165165	0.59464269257398
8.9838914593947	0.59463930766746
8.9650854665072	0.59463608275968
8.9463580423754	0.59463301706566
8.9277086956522	0.59463010975999
8.9091369390788	0.59462735997757
8.8906422894425	0.59462476681449
8.8722242675348	0.59462232932883
8.8538823981099	0.59462004654147
8.8356162098438	0.59461791743688
8.8174252352941	0.59461594096399
8.7993090108600	0.59461411603691
8.7812670767428	0.59461244153579
8.7632989769073	0.59461091630759
8.7454042590432	0.59460953916687
8.7275824745269	0.59460830889661
8.7098331783847	0.59460722424892
8.6921559292549	0.59460628394590
8.6745502893519	0.59460548668037
8.6570158244297	0.59460483111666
8.6395521037464	0.59460431589135
8.6221587000288	0.59460393961407
8.6048351894374	0.59460370086823
8.5875811515325	0.59460359821177
8.5703961692396	0.59460363017794
8.5532798288160	0.59460379527600
8.5362317198178	0.59460409199202
8.5192514350668	0.59460451878954
8.5023385706183	0.59460507411036
8.4854927257288	0.59460575637524
8.4687135028249	0.59460656398460
8.4520005074711	0.59460749531931
8.4353533483399	0.59460854874128
8.4187716371806	0.59460972259430
8.4022549887892	0.59461101520462
8.3858030209790	0.59461242488173
8.3694153545505	0.59461394991901
8.3530916132627	0.59461558859440
8.3368314238042	0.59461733917113
8.3206344157646	0.59461919989834
8.3045002216066	0.59462116901179
8.2884284766381	0.59462324473449
8.2724188189845	0.59462542527737
8.2564708895621	0.59462770883994
8.2405843320506	0.59463009361091
8.2247587928669	0.59463257776887
8.2089939211391	0.59463515948289
8.1932893686800	0.59463783691314
8.1776447899618	0.59464060821158
8.1620598420909	0.59464347152247
8.1465341847826	0.59464642498309
8.1310674803363	0.59464946672427
8.1156593936113	0.59465259487101
8.1003095920022	0.59465580754310
8.0850177454153	0.59465910285566
8.0697835262450	0.59466247891976
8.0546066093498	0.59466593384297
8.0394866720300	0.59466946572996
8.0244233940043	0.59467307268300
8.0094164573871	0.59467675280262
7.9944655466667	0.59468050418803
7.9795703486825	0.59468432493778
7.9647305526036	0.59468821315024
7.9499458499072	0.59469216692413
7.9352159343568	0.59469618435907
7.9205405019815	0.59470026355608
7.9059192510549	0.59470440261809
7.8913518820742	0.59470859965047
7.8768380977404	0.59471285276150
7.8623776029373	0.59471716006288
7.8479701047120	0.59472151967023
7.8336153122550	0.59472592970353
7.8193129368805	0.59473038828763
7.8050626920073	0.59473489355270
7.7908642931393	0.59473944363470
7.7767174578470	0.59474403667583
7.7626219057483	0.59474867082497
7.7485773584906	0.59475334423814
7.7345835397317	0.59475805507891
7.7206401751223	0.59476280151885
7.7067469922879	0.59476758173793
7.6929037208109	0.59477239392497
7.6791100922131	0.59477723627800
7.6653658399386	0.59478210700470
7.6516706993364	0.59478700432278
7.6380244076433	0.59479192646036
7.6244267039674	0.59479687165635
7.6108773292714	0.59480183816088
7.5973760263558	0.59480682423557
7.5839225398432	0.59481182815397
7.5705166161616	0.59481684820189
7.5571580035291	0.59482188267775
7.5438464519376	0.59482692989289
7.5305817131374	0.59483198817198
7.5173635406219	0.59483705585325
7.5041916896120	0.59484213128890
7.4910659170415	0.59484721284537
7.4779859815415	0.59485229890364
7.4649516434263	0.59485738785956
7.4519626646781	0.59486247812412
7.4390188089330	0.59486756812377
7.4261198414664	0.59487265630065
7.4132655291790	0.59487774111293
7.4004556405826	0.59488282103502
7.3876899457861	0.59488789455785
7.3749682164822	0.59489296018915
7.3622902259332	0.59489801645367
7.3496557489581	0.59490306189343
7.3370645619187	0.59490809506795
7.3245164427071	0.59491311455449
7.3120111707317	0.59491811894826
7.2995485269053	0.59492310686264
7.2871282936315	0.59492807692942
7.2747502547925	0.59493302779892
7.2624141957364	0.59493795814029
7.2501199032648	0.59494286664161
7.2378671656205	0.59494775201014
7.2256557724753	0.59495261297245
7.2134855149182	0.59495744827462
7.2013561854432	0.59496225668239
7.1892675779376	0.59496703698132
7.1772194876706	0.59497178797694
7.1652117112811	0.59497650849490
7.1532440467669	0.59498119738112
7.1413162934731	0.59498585350187
7.1294282520809	0.59499047574398
7.1175797245964	0.59499506301489
7.1057705143399	0.59499961424278
7.0940004259347	0.59500412837672
7.0822692652965	0.59500860438671
7.0705768396226	0.59501304126380
7.0589229573817	0.59501743802022
7.0473074283028	0.59502179368939
7.0357300633654	0.59502610732605
7.0241906747891	0.59503037800632
7.0126890760234	0.59503460482775
7.0012250817375	0.59503878690940
6.9897985078107	0.59504292339190
6.9784091713222	0.59504701343745
6.9670568905415	0.59505105622993
6.9557414849188	0.59505505097489
6.9444627750753	0.59505899689959
6.9332205827937	0.59506289325305
6.9220147310090	0.59506673930602
6.9108450437990	0.59507053435104
6.8997113463751	0.59507427770244
6.8886134650735	0.59507796869633
6.8775512273457	0.59508160669059
6.8665244617499	0.59508519106489
6.8555329979419	0.59508872122068
6.8445766666667	0.59509219658111
6.8336552997493	0.59509561659109
6.8227687300865	0.59509898071720
6.8119167916383	0.59510228844770
6.8010993194192	0.59510553929244
6.7903161494904	0.59510873278287
6.7795671189507	0.59511186847195
6.7688520659291	0.59511494593412
6.7581708295762	0.59511796476523
6.7475232500563	0.59512092458248
6.7369091685393	0.59512382502433
6.7263284271932	0.59512666575048
6.7157808691756	0.59512944644173
6.7052663386267	0.59513216679993
6.6947846806610	0.59513482654788
6.6843357413601	0.59513742542927
6.6739193677649	0.59513996320852
6.6635354078684	0.59514243967073
6.6531837106081	0.59514485462158
6.6428641258586	0.59514720788716
6.6325765044248	0.59514949931393
6.6223206980340	0.59515172876854
6.6120965593295	0.59515389613776
6.6019039418630	0.59515600132829
6.5917427000879	0.59515804426669
6.5816126893524	0.59516002489922
6.5715137658922	0.59516194319169
6.5614457868243	0.59516379912934
6.5514086101399	0.59516559271665
6.5414020946978	0.59516732397725
6.5314261002179	0.59516899295373
6.5214804872743	0.59517059970747
6.5115651172893	0.59517214431852
6.5016798525266	0.59517362688538
6.4918245560849	0.59517504752487
6.4819990918919	0.59517640637197
6.4722033246978	0.59517770357959
6.4624371200690	0.59517893931845
6.4527003443823	0.59518011377684
6.4429928648184	0.59518122716049
6.4333145493562	0.59518227969234
6.4236652667667	0.59518327161239
6.4140448866068	0.59518420317745
6.4044532792138	0.59518507466098
6.3948903156997	0.59518588635289
6.3853558679446	0.59518663855932
6.3758498085921	0.59518733160244
6.3663720110427	0.59518796582025
6.3569223494487	0.59518854156635
6.3475006987084	0.59518905920975
6.3381069344609	0.59518951913462
6.3287409330800	0.59518992174011
6.3194025716695	0.59519026744009
6.3100917280572	0.59519055666297
6.3008082807902	0.59519078985142
6.2915521091291	0.59519096746219
6.2823230930427	0.59519108996585
6.2731211132036	0.59519115784658
6.2639460509820	0.59519117160190
6.2547977884415	0.59519113174248
6.2456762083333	0.59519103879186
6.2365811940919	0.59519089328624
6.2275126298297	0.59519069577421
6.2184704003319	0.59519044681653
6.2094543910522	0.59519014698588
6.2004644881075	0.59518979686662
6.1915005782734	0.59518939705449
6.1825625489792	0.59518894815645
6.1736502883031	0.59518845079035
6.1647636849681	0.59518790558471
6.1559026283368	0.59518731317848
6.1470670084068	0.59518667422075
6.1382567158067	0.59518598937053
6.1294716417910	0.59518525929645
6.1207116782360	0.59518448467656
6.1119767176351	0.59518366619802
6.1032666530945	0.59518280455685
6.0945813783289	0.59518190045770
6.0859207876573	0.59518095461356
6.0772847759984	0.59517996774549
6.0686732388664	0.59517894058238
6.0600860723671	0.59517787386070
6.0515231731934	0.59517676832418
6.0429844386212	0.59517562472361
6.0344697665056	0.59517444381653
6.0259790552764	0.59517322636698
6.0175122039342	0.59517197314525
6.0090691120465	0.59517068492759
6.0006496797438	0.59516936249596
5.9922538077154	0.59516800663776
5.9838813972056	0.59516661814557
5.9755323500100	0.59516519781687
5.9672065684713	0.59516374645380
5.9589039554760	0.59516226486286
5.9506244144502	0.59516075385469
5.9423678493558	0.59515921424374
5.9341341646873	0.59515764684810
5.9259232654675	0.59515605248914
5.9177350572444	0.59515443199131
5.9095694460871	0.59515278618184
5.9014263385827	0.59515111589052
5.8933056418321	0.59514942194938
5.8852072634472	0.59514770519250
5.8771311115468	0.59514596645569
5.8690770947533	0.59514420657624
5.8610451221896	0.59514242639271
5.8530351034752	0.59514062674461
5.8450469487229	0.59513880847217
5.8370805685358	0.59513697241611
5.8291358740035	0.59513511941734
5.8212127766990	0.59513325031673
5.8133111886756	0.59513136595487
5.8054310224632	0.59512946717179
5.7975721910656	0.59512755480672
5.7897346079567	0.59512562969788
5.7819181870781	0.59512369268217
5.7741228428351	0.59512174459496
5.7663484900942	0.59511978626986
5.7585950441798	0.59511781853844
5.7508624208709	0.59511584223003
5.7431505363985	0.59511385817144
5.7354593074421	0.59511186718675
5.7277886511272	0.59510987009707
5.7201384850219	0.59510786772031
5.7125087271341	0.59510586087093
5.7048992959087	0.59510385035973
5.6973101102242	0.59510183699362
5.6897410893908	0.59509982157537
5.6821921531463	0.59509780490342
5.6746632216544	0.59509578777163
5.6671542155009	0.59509377096909
5.6596650556919	0.59509175527987
5.6521956636501	0.59508974148281
5.6447459612126	0.59508773035135
5.6373158706281	0.59508572265325
5.6299053145540	0.59508371915043
5.6225142160540	0.59508172059875
5.6151424985952	0.59507972774780
5.6077900860456	0.59507774134071
5.6004569026714	0.59507576211395
5.5931428731343	0.59507379079711
5.5858479224893	0.59507182811275
5.5785719761816	0.59506987477617
5.5713149600446	0.59506793149522
5.5640768002970	0.59506599897015
5.5568574235403	0.59506407789340
5.5496567567568	0.59506216894941
5.5424747273063	0.59506027281449
5.5353112629247	0.59505839015658
5.5281662917204	0.59505652163511
5.5210397421731	0.59505466790084
5.5139315431304	0.59505282959569
5.5068416238060	0.59505100735256
5.4997699137773	0.59504920179517
5.4927163429828	0.59504741353792
5.4856808417200	0.59504564318573
5.4786633406433	0.59504389133388
5.4716637707611	0.59504215856787
5.4646820634342	0.59504044546326
5.4577181503732	0.59503875258555
5.4507719636364	0.59503708049002
5.4438434356274	0.59503542972161
5.4369324990932	0.59503380081477
5.4300390871219	0.59503219429336
5.4231631331404	0.59503061067047
5.4163045709124	0.59502905044837
5.4094633345363	0.59502751411832
5.4026393584430	0.59502600216050
5.3958325773938	0.59502451504387
5.3890429264785	0.59502305322609
5.3822703411131	0.59502161715336
5.3755147570378	0.59502020726039
5.3687761103152	0.59501882397024
5.3620543373278	0.59501746769425
5.3553493747767	0.59501613883193
5.3486611596789	0.59501483777089
5.3419896293656	0.59501356488676
5.3353347214807	0.59501232054308
5.3286963739780	0.59501110509123
5.3220745251198	0.59500991887036
5.3154691134752	0.59500876220733
5.3088800779175	0.59500763541662
5.3023073576229	0.59500653880026
5.2957508920685	0.59500547264781
5.2892106210303	0.59500443723624
5.2826864845815	0.59500343282994
5.2761784230905	0.59500245968061
5.2696863772192	0.59500151802726
5.2632102879213	0.59500060809614
5.2567500964405	0.59499973010071
5.2503057443082	0.59499888424160
5.2438771733427	0.59499807070656
5.2374643256464	0.59499728967048
5.2310671436050	0.59499654129531
5.2246855698850	0.59499582573005
5.2183195474326	0.59499514311078
5.2119690194715	0.59499449356056
5.2056339295016	0.59499387718949
5.1993142212973	0.59499329409469
5.1930098389052	0.59499274436025
5.1867207266436	0.59499222805728
5.1804468290997	0.59499174524390
5.1741880911288	0.59499129596524
5.1679444578521	0.59499088025343
5.1617158746556	0.59499049812766
5.1555022871883	0.59499014959418
5.1493036413604	0.59498983464628
5.1431198833419	0.59498955326438
5.1369509595613	0.59498930541601
5.1307968167037	0.59498909105587
5.1246574017094	0.59498891012584
5.1185326617722	0.59498876255503
5.1124225443383	0.59498864825985
5.1063269971044	0.59498856714399
5.1002459680163	0.59498851909854
5.0941794052676	0.59498850400200
5.0881272572980	0.59498852172035
5.0820894727920	0.59498857210709
5.0760660006773	0.59498865500335
5.0700567901235	0.59498877023790
5.0640617905405	0.59498891762726
5.0580809515775	0.59498909697575
5.0521142231210	0.59498930807559
5.0461615552937	0.59498955070695
5.0402228984533	0.59498982463805
5.0342982031906	0.59499012962526
5.0283874203287	0.59499046541316
5.0224905009214	0.59499083173466
5.0166073962517	0.59499122831107
5.0107380578305	0.59499165485224
5.0048824373957	0.59499211105660
4.9990404869101	0.59499259661134
4.9932121585610	0.59499311119246
4.9873974047579	0.59499365446491
4.9815961781323	0.59499422608272
4.9758084315353	0.59499482568906
4.9700341180371	0.59499545291644
4.9642731909256	0.59499610738676
4.9585256037049	0.59499678871151
4.9527913100942	0.59499749649183
4.9470702640264	0.59499823031870
4.9413624196473	0.59499898977305
4.9356677313138	0.59499977442589
4.9299861535932	0.59500058383847
4.9243176412615	0.59500141756245
4.9186621493027	0.59500227513996
4.9130196329072	0.59500315610387
4.9073900474709	0.59500405997785
4.9017733485939	0.59500498627655
4.8961694920790	0.59500593450580
4.8905784339315	0.59500690416271
4.8850001303569	0.59500789473588
4.8794345377604	0.59500890570554
4.8738816127459	0.59500993654374
4.8683413121143	0.59501098671449
4.8628135928629	0.59501205567397
4.8572984121841	0.59501314287069
4.8517957274640	0.59501424774566
4.8463054962819	0.59501536973259
4.8408276764088	0.59501650825806
4.8353622258065	0.59501766274172
