#Parameters = {thARC=0; nARC=2.5; thsub=1; p=1; nSub=4.5}
#"Wavelength / um"	"T (793) [Real Part]"
#---------------------------------------
14.989622900000	0.59504084803649
14.937342202292	0.59508454592770
14.885424925521	0.59512695510551
14.833867293419	0.59516809361297
14.782665581854	0.59520797940849
14.731816117936	0.59524663036429
14.681315279138	0.59528406426491
14.631159492435	0.59532029880573
14.581345233463	0.59535535159157
14.531869025691	0.59538924013523
14.482727439614	0.59542198185614
14.433917091960	0.59545359407901
14.385434644914	0.59548409403250
14.337276805356	0.59551349884791
14.289440324118	0.59554182555798
14.241921995249	0.59556909109558
14.194718655303	0.59559531229258
14.147827182633	0.59562050587862
14.101244496707	0.59564468848000
14.054967557431	0.59566787661855
14.008993364486	0.59569008671054
13.963318956684	0.59571133506566
13.917941411328	0.59573163788592
13.872857843591	0.59575101126472
13.828065405904	0.59576947118583
13.783561287356	0.59578703352249
13.739342713107	0.59580371403645
13.695406943810	0.59581952837710
13.651751275046	0.59583449208062
13.608373036768	0.59584862056914
13.565269592760	0.59586192914992
13.522438340099	0.59587443301461
13.479876708633	0.59588614723846
13.437582160466	0.59589708677959
13.395552189455	0.59590726647837
13.353784320713	0.59591670105663
13.312276110124	0.59592540511713
13.271025143869	0.59593339314285
13.230029037952	0.59594067949646
13.189285437747	0.59594727841974
13.148792017544	0.59595320403301
13.108546480105	0.59595847033464
13.068546556234	0.59596309120055
13.028790004346	0.59596708038377
12.989274610052	0.59597045151393
12.949998185745	0.59597321809695
12.910958570198	0.59597539351452
12.872153628167	0.59597699102386
12.833581250000	0.59597802375726
12.795239351259	0.59597850472186
12.757125872340	0.59597844679926
12.719238778108	0.59597786274531
12.681576057530	0.59597676518984
12.644135723323	0.59597516663641
12.606915811606	0.59597307946214
12.569914381551	0.59597051591749
12.533129515050	0.59596748812611
12.496559316382	0.59596400808471
12.460201911887	0.59596008766292
12.424055449648	0.59595573860320
12.388118099174	0.59595097252076
12.352388051092	0.59594580090353
12.316863516845	0.59594023511205
12.281542728390	0.59593428637955
12.246423937908	0.59592796581188
12.211505417515	0.59592128438755
12.176785458976	0.59591425295779
12.142262373431	0.59590688224660
12.107934491115	0.59589918285083
12.073800161095	0.59589116524028
12.039857751004	0.59588283975781
12.006105646776	0.59587421661949
11.972542252396	0.59586530591475
11.939165989646	0.59585611760654
11.905975297855	0.59584666153152
11.872968633663	0.59583694740030
11.840144470774	0.59582698479760
11.807501299724	0.59581678318255
11.775037627651	0.59580635188891
11.742751978065	0.59579570012536
11.710642890625	0.59578483697577
11.678708920919	0.59577377139953
11.646948640249	0.59576251223185
11.615360635413	0.59575106818410
11.583943508501	0.59573944784414
11.552695876686	0.59572765967674
11.521616372022	0.59571571202389
11.490703641242	0.59570361310524
11.459956345566	0.59569137101850
11.429373160503	0.59567899373984
11.398952775665	0.59566648912434
11.368693894577	0.59565386490644
11.338595234493	0.59564112870040
11.308655526217	0.59562828800076
11.278873513920	0.59561535018284
11.249247954972	0.59560232250325
11.219777619760	0.59558921210038
11.190461291527	0.59557602599490
11.161297766195	0.59556277109036
11.132285852209	0.59554945417369
11.103424370370	0.59553608191576
11.074712153676	0.59552266087195
11.046148047163	0.59550919748275
11.017730907755	0.59549569807430
10.989459604106	0.59548216885907
10.961333016453	0.59546861593638
10.933350036470	0.59545504529309
10.905509567115	0.59544146280417
10.877810522496	0.59542787423340
10.850251827723	0.59541428523397
10.822832418773	0.59540070134917
10.795551242348	0.59538712801302
10.768407255747	0.59537357055098
10.741399426729	0.59536003418063
10.714526733381	0.59534652401232
10.687788163993	0.59533304504993
10.661182716927	0.59531960219152
10.634709400497	0.59530620023009
10.608367232838	0.59529284385426
10.582155241793	0.59527953764906
10.556072464789	0.59526628609659
10.530117948718	0.59525309357683
10.504290749825	0.59523996436834
10.478589933590	0.59522690264904
10.453014574616	0.59521391249698
10.427563756522	0.59520099789111
10.402236571825	0.59518816271200
10.377032121841	0.59517541074271
10.351949516575	0.59516274566949
10.326987874612	0.59515017108264
10.302146323024	0.59513769047725
10.277423997257	0.59512530725404
10.252820041040	0.59511302472015
10.228333606278	0.59510084608994
10.203963852961	0.59508877448584
10.179709949066	0.59507681293913
10.155571070461	0.59506496439078
10.131546400811	0.59505323169228
10.107635131490	0.59504161760647
10.083836461487	0.59503012480835
10.060149597315	0.59501875588598
10.036573752929	0.59500751334125
10.013108149633	0.59499639959076
9.9897520159947	0.59498541696667
9.9665045877660	0.59497456771756
9.9433651077944	0.59496385400922
9.9203328259431	0.59495327792561
9.8974069990096	0.59494284146960
9.8745868906456	0.59493254656395
9.8518717712783	0.59492239505205
9.8292609180328	0.59491238869891
9.8067536146549	0.59490252919191
9.7843491514360	0.59489281814174
9.7620468251384	0.59488325708325
9.7398459389214	0.59487384747631
9.7177458022690	0.59486459070670
9.6957457309185	0.59485548808697
9.6738450467893	0.59484654085731
9.6520430779137	0.59483775018644
9.6303391583681	0.59482911717245
9.6087326282051	0.59482064284374
9.5872228333866	0.59481232815983
9.5658091257179	0.59480417401227
9.5444908627826	0.59479618122551
9.5232674078780	0.59478835055777
9.5021381299525	0.59478068270194
9.4811024035421	0.59477317828641
9.4601596087094	0.59476583787601
9.4393091309824	0.59475866197283
9.4185503612944	0.59475165101710
9.3978826959248	0.59474480538811
9.3773055364404	0.59473812540504
9.3568182896380	0.59473161132784
9.3364203674868	0.59472526335810
9.3161111870727	0.59471908163995
9.2958901705426	0.59471306626089
9.2757567450495	0.59470721725268
9.2557103426984	0.59470153459218
9.2357504004929	0.59469601820227
9.2158763602828	0.59469066795265
9.1960876687117	0.59468548366075
9.1763837771656	0.59468046509254
9.1567641417227	0.59467561196344
9.1372282231027	0.59467092393915
9.1177754866180	0.59466640063650
9.0984054021244	0.59466204162430
9.0791174439733	0.59465784642421
9.0599110909640	0.59465381451155
9.0407858262967	0.59464994531618
9.0217411375263	0.59464623822332
9.0027765165165	0.59464269257440
8.9838914593947	0.59463930766788
8.9650854665072	0.59463608276010
8.9463580423754	0.59463301706609
8.9277086956522	0.59463010976041
8.9091369390788	0.59462735997800
8.8906422894425	0.59462476681492
8.8722242675348	0.59462232932926
8.8538823981099	0.59462004654190
8.8356162098438	0.59461791743731
8.8174252352941	0.59461594096442
8.7993090108600	0.59461411603734
8.7812670767428	0.59461244153622
8.7632989769073	0.59461091630803
8.7454042590432	0.59460953916731
8.7275824745269	0.59460830889704
8.7098331783847	0.59460722424936
8.6921559292549	0.59460628394634
8.6745502893519	0.59460548668081
8.6570158244297	0.59460483111710
8.6395521037464	0.59460431589179
8.6221587000288	0.59460393961451
8.6048351894374	0.59460370086866
8.5875811515325	0.59460359821221
8.5703961692396	0.59460363017837
8.5532798288160	0.59460379527644
8.5362317198178	0.59460409199246
8.5192514350668	0.59460451878998
8.5023385706183	0.59460507411079
8.4854927257288	0.59460575637567
8.4687135028249	0.59460656398504
8.4520005074711	0.59460749531973
8.4353533483399	0.59460854874171
8.4187716371806	0.59460972259473
8.4022549887892	0.59461101520505
8.3858030209790	0.59461242488216
8.3694153545505	0.59461394991943
8.3530916132627	0.59461558859482
8.3368314238042	0.59461733917155
8.3206344157646	0.59461919989876
8.3045002216066	0.59462116901220
8.2884284766381	0.59462324473490
8.2724188189845	0.59462542527778
8.2564708895621	0.59462770884034
8.2405843320506	0.59463009361131
8.2247587928669	0.59463257776927
8.2089939211391	0.59463515948328
8.1932893686800	0.59463783691354
8.1776447899618	0.59464060821196
8.1620598420909	0.59464347152286
8.1465341847826	0.59464642498347
8.1310674803363	0.59464946672464
8.1156593936113	0.59465259487139
8.1003095920022	0.59465580754347
8.0850177454153	0.59465910285603
8.0697835262450	0.59466247892012
8.0546066093498	0.59466593384333
8.0394866720300	0.59466946573031
8.0244233940043	0.59467307268336
8.0094164573871	0.59467675280296
7.9944655466667	0.59468050418837
7.9795703486825	0.59468432493812
7.9647305526036	0.59468821315058
7.9499458499072	0.59469216692446
7.9352159343568	0.59469618435940
7.9205405019815	0.59470026355640
7.9059192510549	0.59470440261840
7.8913518820742	0.59470859965078
7.8768380977404	0.59471285276180
7.8623776029373	0.59471716006318
7.8479701047120	0.59472151967053
7.8336153122550	0.59472592970382
7.8193129368805	0.59473038828792
7.8050626920073	0.59473489355298
7.7908642931393	0.59473944363498
7.7767174578470	0.59474403667610
7.7626219057483	0.59474867082524
7.7485773584906	0.59475334423840
7.7345835397317	0.59475805507916
7.7206401751223	0.59476280151910
7.7067469922879	0.59476758173818
7.6929037208109	0.59477239392521
7.6791100922131	0.59477723627824
7.6653658399386	0.59478210700493
7.6516706993364	0.59478700432300
7.6380244076433	0.59479192646057
7.6244267039674	0.59479687165657
7.6108773292714	0.59480183816108
7.5973760263558	0.59480682423577
7.5839225398432	0.59481182815417
7.5705166161616	0.59481684820208
7.5571580035291	0.59482188267793
7.5438464519376	0.59482692989307
7.5305817131374	0.59483198817215
7.5173635406219	0.59483705585342
7.5041916896120	0.59484213128906
7.4910659170415	0.59484721284552
7.4779859815415	0.59485229890379
7.4649516434263	0.59485738785970
7.4519626646781	0.59486247812426
7.4390188089330	0.59486756812390
7.4261198414664	0.59487265630078
7.4132655291790	0.59487774111305
7.4004556405826	0.59488282103513
7.3876899457861	0.59488789455796
7.3749682164822	0.59489296018925
7.3622902259332	0.59489801645377
7.3496557489581	0.59490306189352
7.3370645619187	0.59490809506803
7.3245164427071	0.59491311455456
7.3120111707317	0.59491811894832
7.2995485269053	0.59492310686271
7.2871282936315	0.59492807692947
7.2747502547925	0.59493302779897
7.2624141957364	0.59493795814033
7.2501199032648	0.59494286664165
7.2378671656205	0.59494775201017
7.2256557724753	0.59495261297247
7.2134855149182	0.59495744827464
7.2013561854432	0.59496225668240
7.1892675779376	0.59496703698132
7.1772194876706	0.59497178797694
7.1652117112811	0.59497650849490
7.1532440467669	0.59498119738110
7.1413162934731	0.59498585350185
7.1294282520809	0.59499047574396
7.1175797245964	0.59499506301486
7.1057705143399	0.59499961424275
7.0940004259347	0.59500412837668
7.0822692652965	0.59500860438666
7.0705768396226	0.59501304126375
7.0589229573817	0.59501743802016
7.0473074283028	0.59502179368932
7.0357300633654	0.59502610732598
7.0241906747891	0.59503037800624
7.0126890760234	0.59503460482766
7.0012250817375	0.59503878690931
6.9897985078107	0.59504292339180
6.9784091713222	0.59504701343735
6.9670568905415	0.59505105622983
6.9557414849188	0.59505505097478
6.9444627750753	0.59505899689948
6.9332205827937	0.59506289325293
6.9220147310090	0.59506673930589
6.9108450437990	0.59507053435091
6.8997113463751	0.59507427770230
6.8886134650735	0.59507796869618
6.8775512273457	0.59508160669044
6.8665244617499	0.59508519106474
6.8555329979419	0.59508872122051
6.8445766666667	0.59509219658094
6.8336552997493	0.59509561659091
6.8227687300865	0.59509898071702
6.8119167916383	0.59510228844751
6.8010993194192	0.59510553929225
6.7903161494904	0.59510873278267
6.7795671189507	0.59511186847175
6.7688520659291	0.59511494593392
6.7581708295762	0.59511796476502
6.7475232500563	0.59512092458226
6.7369091685393	0.59512382502412
6.7263284271932	0.59512666575026
6.7157808691756	0.59512944644150
6.7052663386267	0.59513216679970
6.6947846806610	0.59513482654765
6.6843357413601	0.59513742542903
6.6739193677649	0.59513996320827
6.6635354078684	0.59514243967048
6.6531837106081	0.59514485462132
6.6428641258586	0.59514720788690
6.6325765044248	0.59514949931367
6.6223206980340	0.59515172876828
6.6120965593295	0.59515389613749
6.6019039418630	0.59515600132801
6.5917427000879	0.59515804426641
6.5816126893524	0.59516002489894
6.5715137658922	0.59516194319141
6.5614457868243	0.59516379912904
6.5514086101399	0.59516559271635
6.5414020946978	0.59516732397695
6.5314261002179	0.59516899295343
6.5214804872743	0.59517059970717
6.5115651172893	0.59517214431821
6.5016798525266	0.59517362688506
6.4918245560849	0.59517504752455
6.4819990918919	0.59517640637165
6.4722033246978	0.59517770357927
6.4624371200690	0.59517893931812
6.4527003443823	0.59518011377651
6.4429928648184	0.59518122716015
6.4333145493562	0.59518227969201
6.4236652667667	0.59518327161205
6.4140448866068	0.59518420317711
6.4044532792138	0.59518507466063
6.3948903156997	0.59518588635254
6.3853558679446	0.59518663855897
6.3758498085921	0.59518733160209
6.3663720110427	0.59518796581989
6.3569223494487	0.59518854156599
6.3475006987084	0.59518905920939
6.3381069344609	0.59518951913425
6.3287409330800	0.59518992173974
6.3194025716695	0.59519026743972
6.3100917280572	0.59519055666260
6.3008082807902	0.59519078985105
6.2915521091291	0.59519096746181
6.2823230930427	0.59519108996548
6.2731211132036	0.59519115784620
6.2639460509820	0.59519117160152
6.2547977884415	0.59519113174210
6.2456762083333	0.59519103879147
6.2365811940919	0.59519089328585
6.2275126298297	0.59519069577381
6.2184704003319	0.59519044681614
6.2094543910522	0.59519014698549
6.2004644881075	0.59518979686622
6.1915005782734	0.59518939705410
6.1825625489792	0.59518894815605
6.1736502883031	0.59518845078995
6.1647636849681	0.59518790558431
6.1559026283368	0.59518731317808
6.1470670084068	0.59518667422035
6.1382567158067	0.59518598937013
6.1294716417910	0.59518525929605
6.1207116782360	0.59518448467616
6.1119767176351	0.59518366619761
6.1032666530945	0.59518280455644
6.0945813783289	0.59518190045729
6.0859207876573	0.59518095461315
6.0772847759984	0.59517996774508
6.0686732388664	0.59517894058197
6.0600860723671	0.59517787386029
6.0515231731934	0.59517676832377
6.0429844386212	0.59517562472320
6.0344697665056	0.59517444381612
6.0259790552764	0.59517322636657
6.0175122039342	0.59517197314483
6.0090691120465	0.59517068492717
6.0006496797438	0.59516936249554
5.9922538077154	0.59516800663734
5.9838813972056	0.59516661814515
5.9755323500100	0.59516519781646
5.9672065684713	0.59516374645339
5.9589039554760	0.59516226486245
5.9506244144502	0.59516075385427
5.9423678493558	0.59515921424333
5.9341341646873	0.59515764684769
5.9259232654675	0.59515605248873
5.9177350572444	0.59515443199090
5.9095694460871	0.59515278618143
5.9014263385827	0.59515111589011
5.8933056418321	0.59514942194897
5.8852072634472	0.59514770519209
5.8771311115468	0.59514596645528
5.8690770947533	0.59514420657584
5.8610451221896	0.59514242639230
5.8530351034752	0.59514062674420
5.8450469487229	0.59513880847177
5.8370805685358	0.59513697241571
5.8291358740035	0.59513511941694
5.8212127766990	0.59513325031633
5.8133111886756	0.59513136595447
5.8054310224632	0.59512946717139
5.7975721910656	0.59512755480632
5.7897346079567	0.59512562969748
5.7819181870781	0.59512369268177
5.7741228428351	0.59512174459457
5.7663484900942	0.59511978626947
5.7585950441798	0.59511781853805
5.7508624208709	0.59511584222964
5.7431505363985	0.59511385817105
5.7354593074421	0.59511186718636
5.7277886511272	0.59510987009669
5.7201384850219	0.59510786771993
5.7125087271341	0.59510586087055
5.7048992959087	0.59510385035935
5.6973101102242	0.59510183699324
5.6897410893908	0.59509982157499
5.6821921531463	0.59509780490304
5.6746632216544	0.59509578777126
5.6671542155009	0.59509377096872
5.6596650556919	0.59509175527950
5.6521956636501	0.59508974148245
5.6447459612126	0.59508773035099
5.6373158706281	0.59508572265289
5.6299053145540	0.59508371915007
5.6225142160540	0.59508172059839
5.6151424985952	0.59507972774744
5.6077900860456	0.59507774134036
5.6004569026714	0.59507576211360
5.5931428731343	0.59507379079677
5.5858479224893	0.59507182811241
5.5785719761816	0.59506987477582
5.5713149600446	0.59506793149487
5.5640768002970	0.59506599896981
5.5568574235403	0.59506407789306
5.5496567567568	0.59506216894908
5.5424747273063	0.59506027281416
5.5353112629247	0.59505839015625
5.5281662917204	0.59505652163478
5.5210397421731	0.59505466790052
5.5139315431304	0.59505282959537
5.5068416238060	0.59505100735224
5.4997699137773	0.59504920179485
5.4927163429828	0.59504741353760
5.4856808417200	0.59504564318542
5.4786633406433	0.59504389133357
5.4716637707611	0.59504215856756
5.4646820634342	0.59504044546296
5.4577181503732	0.59503875258525
5.4507719636364	0.59503708048972
5.4438434356274	0.59503542972131
5.4369324990932	0.59503380081448
5.4300390871219	0.59503219429307
5.4231631331404	0.59503061067019
5.4163045709124	0.59502905044809
5.4094633345363	0.59502751411804
5.4026393584430	0.59502600216022
5.3958325773938	0.59502451504360
5.3890429264785	0.59502305322581
5.3822703411131	0.59502161715309
5.3755147570378	0.59502020726013
5.3687761103152	0.59501882396998
5.3620543373278	0.59501746769399
5.3553493747767	0.59501613883167
5.3486611596789	0.59501483777064
5.3419896293656	0.59501356488651
5.3353347214807	0.59501232054283
5.3286963739780	0.59501110509098
5.3220745251198	0.59500991887012
5.3154691134752	0.59500876220709
5.3088800779175	0.59500763541638
5.3023073576229	0.59500653880003
5.2957508920685	0.59500547264758
5.2892106210303	0.59500443723602
5.2826864845815	0.59500343282972
5.2761784230905	0.59500245968039
5.2696863772192	0.59500151802705
5.2632102879213	0.59500060809593
5.2567500964405	0.59499973010050
5.2503057443082	0.59499888424139
5.2438771733427	0.59499807070636
5.2374643256464	0.59499728967028
5.2310671436050	0.59499654129511
5.2246855698850	0.59499582572986
5.2183195474326	0.59499514311058
5.2119690194715	0.59499449356037
5.2056339295016	0.59499387718931
5.1993142212973	0.59499329409451
5.1930098389052	0.59499274436007
5.1867207266436	0.59499222805711
5.1804468290997	0.59499174524373
5.1741880911288	0.59499129596507
5.1679444578521	0.59499088025326
5.1617158746556	0.59499049812750
5.1555022871883	0.59499014959402
5.1493036413604	0.59498983464612
5.1431198833419	0.59498955326423
5.1369509595613	0.59498930541586
5.1307968167037	0.59498909105572
5.1246574017094	0.59498891012569
5.1185326617722	0.59498876255489
5.1124225443383	0.59498864825971
5.1063269971044	0.59498856714385
5.1002459680163	0.59498851909841
5.0941794052676	0.59498850400187
5.0881272572980	0.59498852172022
5.0820894727920	0.59498857210697
5.0760660006773	0.59498865500323
5.0700567901235	0.59498877023778
5.0640617905405	0.59498891762714
5.0580809515775	0.59498909697564
5.0521142231210	0.59498930807548
5.0461615552937	0.59498955070684
5.0402228984533	0.59498982463795
5.0342982031906	0.59499012962516
5.0283874203287	0.59499046541306
5.0224905009214	0.59499083173456
5.0166073962517	0.59499122831098
5.0107380578305	0.59499165485215
5.0048824373957	0.59499211105651
4.9990404869101	0.59499259661125
4.9932121585610	0.59499311119238
4.9873974047579	0.59499365446484
4.9815961781323	0.59499422608264
4.9758084315353	0.59499482568899
4.9700341180371	0.59499545291636
4.9642731909256	0.59499610738669
4.9585256037049	0.59499678871144
4.9527913100942	0.59499749649177
4.9470702640264	0.59499823031864
4.9413624196473	0.59499898977299
4.9356677313138	0.59499977442583
4.9299861535932	0.59500058383842
4.9243176412615	0.59500141756239
4.9186621493027	0.59500227513991
4.9130196329072	0.59500315610383
4.9073900474709	0.59500405997780
4.9017733485939	0.59500498627651
4.8961694920790	0.59500593450576
4.8905784339315	0.59500690416268
4.8850001303569	0.59500789473585
4.8794345377604	0.59500890570551
4.8738816127459	0.59500993654371
4.8683413121143	0.59501098671446
4.8628135928629	0.59501205567394
4.8572984121841	0.59501314287066
4.8517957274640	0.59501424774564
4.8463054962819	0.59501536973257
4.8408276764088	0.59501650825805
4.8353622258065	0.59501766274170
