#Parameters = {thARC=0; nARC=2; thsub=1; p=1; nSub=1.25}
#"Wavelength / um"	"T (79) [Real Part]"
#--------------------------------------
14.989622900000	0.98765436650083
14.937342202292	0.98765999133671
14.885424925521	0.98766551206207
14.833867293419	0.98767092966227
14.782665581854	0.98767624511780
14.731816117936	0.98768145940425
14.681315279138	0.98768657349236
14.631159492435	0.98769158834801
14.581345233463	0.98769650493220
14.531869025691	0.98770132420108
14.482727439614	0.98770604710595
14.433917091960	0.98771067459326
14.385434644914	0.98771520760459
14.337276805356	0.98771964707670
14.289440324118	0.98772399394149
14.241921995249	0.98772824912606
14.194718655303	0.98773241355263
14.147827182633	0.98773648813863
14.101244496707	0.98774047379664
14.054967557431	0.98774437143446
14.008993364486	0.98774818195504
13.963318956684	0.98775190625653
13.917941411328	0.98775554523228
13.872857843591	0.98775909977085
13.828065405904	0.98776257075600
13.783561287356	0.98776595906669
13.739342713107	0.98776926557711
13.695406943810	0.98777249115667
13.651751275046	0.98777563667000
13.608373036768	0.98777870297697
13.565269592760	0.98778169093269
13.522438340099	0.98778460138750
13.479876708633	0.98778743518702
13.437582160466	0.98779019317210
13.395552189455	0.98779287617886
13.353784320713	0.98779548503869
13.312276110124	0.98779802057824
13.271025143869	0.98780048361947
13.230029037952	0.98780287497961
13.189285437747	0.98780519547118
13.148792017544	0.98780744590200
13.108546480105	0.98780962707521
13.068546556234	0.98781173978926
13.028790004346	0.98781378483790
12.989274610052	0.98781576301025
12.949998185745	0.98781767509071
12.910958570198	0.98781952185908
12.872153628167	0.98782130409045
12.833581250000	0.98782302255532
12.795239351259	0.98782467801952
12.757125872340	0.98782627124427
12.719238778108	0.98782780298614
12.681576057530	0.98782927399712
12.644135723323	0.98783068502458
12.606915811606	0.98783203681128
12.569914381551	0.98783333009542
12.533129515050	0.98783456561058
12.496559316382	0.98783574408580
12.460201911887	0.98783686624552
12.424055449648	0.98783793280966
12.388118099174	0.98783894449357
12.352388051092	0.98783990200804
12.316863516845	0.98784080605937
12.281542728390	0.98784165734929
12.246423937908	0.98784245657506
12.211505417515	0.98784320442939
12.176785458976	0.98784390160052
12.142262373431	0.98784454877219
12.107934491115	0.98784514662367
12.073800161095	0.98784569582974
12.039857751004	0.98784619706073
12.006105646776	0.98784665098251
11.972542252396	0.98784705825652
11.939165989646	0.98784741953975
11.905975297855	0.98784773548476
11.872968633663	0.98784800673972
11.840144470774	0.98784823394836
11.807501299724	0.98784841775005
11.775037627651	0.98784855877974
11.742751978065	0.98784865766801
11.710642890625	0.98784871504109
11.678708920919	0.98784873152083
11.646948640249	0.98784870772474
11.615360635413	0.98784864426600
11.583943508501	0.98784854175345
11.552695876686	0.98784840079161
11.521616372022	0.98784822198071
11.490703641242	0.98784800591667
11.459956345566	0.98784775319112
11.429373160503	0.98784746439141
11.398952775665	0.98784714010064
11.368693894577	0.98784678089765
11.338595234493	0.98784638735701
11.308655526217	0.98784596004910
11.278873513920	0.98784549954002
11.249247954972	0.98784500639172
11.219777619760	0.98784448116189
11.190461291527	0.98784392440407
11.161297766195	0.98784333666758
11.132285852209	0.98784271849762
11.103424370370	0.98784207043519
11.074712153676	0.98784139301715
11.046148047163	0.98784068677625
11.017730907755	0.98783995224107
10.989459604106	0.98783918993612
10.961333016453	0.98783840038179
10.933350036470	0.98783758409437
10.905509567115	0.98783674158607
10.877810522496	0.98783587336506
10.850251827723	0.98783497993542
10.822832418773	0.98783406179719
10.795551242348	0.98783311944641
10.768407255747	0.98783215337506
10.741399426729	0.98783116407111
10.714526733381	0.98783015201857
10.687788163993	0.98782911769743
10.661182716927	0.98782806158371
10.634709400497	0.98782698414948
10.608367232838	0.98782588586285
10.582155241793	0.98782476718799
10.556072464789	0.98782362858516
10.530117948718	0.98782247051069
10.504290749825	0.98782129341701
10.478589933590	0.98782009775267
10.453014574616	0.98781888396233
10.427563756522	0.98781765248680
10.402236571825	0.98781640376302
10.377032121841	0.98781513822412
10.351949516575	0.98781385629936
10.326987874612	0.98781255841423
10.302146323024	0.98781124499037
10.277423997257	0.98780991644569
10.252820041040	0.98780857319426
10.228333606278	0.98780721564644
10.203963852961	0.98780584420879
10.179709949066	0.98780445928418
10.155571070461	0.98780306127171
10.131546400811	0.98780165056680
10.107635131490	0.98780022756115
10.083836461487	0.98779879264279
10.060149597315	0.98779734619606
10.036573752929	0.98779588860165
10.013108149633	0.98779442023659
9.9897520159947	0.98779294147428
9.9665045877660	0.98779145268452
9.9433651077944	0.98778995423346
9.9203328259431	0.98778844648370
9.8974069990096	0.98778692979422
9.8745868906456	0.98778540452046
9.8518717712783	0.98778387101427
9.8292609180328	0.98778232962401
9.8067536146549	0.98778078069446
9.7843491514360	0.98777922456692
9.7620468251384	0.98777766157916
9.7398459389214	0.98777609206549
9.7177458022690	0.98777451635674
9.6957457309185	0.98777293478025
9.6738450467893	0.98777134765994
9.6520430779137	0.98776975531631
9.6303391583681	0.98776815806640
9.6087326282051	0.98776655622387
9.5872228333866	0.98776495009898
9.5658091257179	0.98776333999862
9.5444908627826	0.98776172622630
9.5232674078780	0.98776010908219
9.5021381299525	0.98775848886311
9.4811024035421	0.98775686586258
9.4601596087094	0.98775524037079
9.4393091309824	0.98775361267463
9.4185503612944	0.98775198305773
9.3978826959248	0.98775035180044
9.3773055364404	0.98774871917985
9.3568182896380	0.98774708546981
9.3364203674868	0.98774545094097
9.3161111870727	0.98774381586073
9.2958901705426	0.98774218049332
9.2757567450495	0.98774054509977
9.2557103426984	0.98773890993796
9.2357504004929	0.98773727526259
9.2158763602828	0.98773564132524
9.1960876687117	0.98773400837436
9.1763837771656	0.98773237665527
9.1567641417227	0.98773074641021
9.1372282231027	0.98772911787833
9.1177754866180	0.98772749129570
9.0984054021244	0.98772586689536
9.0791174439733	0.98772424490729
9.0599110909640	0.98772262555844
9.0407858262967	0.98772100907276
9.0217411375263	0.98771939567119
9.0027765165165	0.98771778557170
8.9838914593947	0.98771617898927
8.9650854665072	0.98771457613595
8.9463580423754	0.98771297722083
8.9277086956522	0.98771138245009
8.9091369390788	0.98770979202698
8.8906422894425	0.98770820615187
8.8722242675348	0.98770662502224
8.8538823981099	0.98770504883270
8.8356162098438	0.98770347777502
8.8174252352941	0.98770191203810
8.7993090108600	0.98770035180805
8.7812670767428	0.98769879726816
8.7632989769073	0.98769724859891
8.7454042590432	0.98769570597801
8.7275824745269	0.98769416958042
8.7098331783847	0.98769263957832
8.6921559292549	0.98769111614117
8.6745502893519	0.98768959943570
8.6570158244297	0.98768808962595
8.6395521037464	0.98768658687324
8.6221587000288	0.98768509133624
8.6048351894374	0.98768360317093
8.5875811515325	0.98768212253066
8.5703961692396	0.98768064956615
8.5532798288160	0.98767918442547
8.5362317198178	0.98767772725412
8.5192514350668	0.98767627819499
8.5023385706183	0.98767483738841
8.4854927257288	0.98767340497213
8.4687135028249	0.98767198108137
8.4520005074711	0.98767056584881
8.4353533483399	0.98766915940463
8.4187716371806	0.98766776187648
8.4022549887892	0.98766637338955
8.3858030209790	0.98766499406655
8.3694153545505	0.98766362402771
8.3530916132627	0.98766226339086
8.3368314238042	0.98766091227137
8.3206344157646	0.98765957078220
8.3045002216066	0.98765823903393
8.2884284766381	0.98765691713474
8.2724188189845	0.98765560519045
8.2564708895621	0.98765430330452
8.2405843320506	0.98765301157806
8.2247587928669	0.98765173010989
8.2089939211391	0.98765045899649
8.1932893686800	0.98764919833205
8.1776447899618	0.98764794820849
8.1620598420909	0.98764670871546
8.1465341847826	0.98764547994035
8.1310674803363	0.98764426196833
8.1156593936113	0.98764305488234
8.1003095920022	0.98764185876311
8.0850177454153	0.98764067368918
8.0697835262450	0.98763949973693
8.0546066093498	0.98763833698055
8.0394866720300	0.98763718549211
8.0244233940043	0.98763604534152
8.0094164573871	0.98763491659660
7.9944655466667	0.98763379932304
7.9795703486825	0.98763269358447
7.9647305526036	0.98763159944241
7.9499458499072	0.98763051695636
7.9352159343568	0.98762944618376
7.9205405019815	0.98762838718000
7.9059192510549	0.98762733999848
7.8913518820742	0.98762630469059
7.8768380977404	0.98762528130575
7.8623776029373	0.98762426989137
7.8479701047120	0.98762327049296
7.8336153122550	0.98762228315403
7.8193129368805	0.98762130791620
7.8050626920073	0.98762034481917
7.7908642931393	0.98761939390074
7.7767174578470	0.98761845519683
7.7626219057483	0.98761752874147
7.7485773584906	0.98761661456687
7.7345835397317	0.98761571270338
7.7206401751223	0.98761482317952
7.7067469922879	0.98761394602202
7.6929037208109	0.98761308125579
7.6791100922131	0.98761222890398
7.6653658399386	0.98761138898796
7.6516706993364	0.98761056152735
7.6380244076433	0.98760974654003
7.6244267039674	0.98760894404216
7.6108773292714	0.98760815404819
7.5973760263558	0.98760737657088
7.5839225398432	0.98760661162130
7.5705166161616	0.98760585920886
7.5571580035291	0.98760511934131
7.5438464519376	0.98760439202478
7.5305817131374	0.98760367726375
7.5173635406219	0.98760297506113
7.5041916896120	0.98760228541820
7.4910659170415	0.98760160833467
7.4779859815415	0.98760094380870
7.4649516434263	0.98760029183688
7.4519626646781	0.98759965241427
7.4390188089330	0.98759902553440
7.4261198414664	0.98759841118930
7.4132655291790	0.98759780936951
7.4004556405826	0.98759722006407
7.3876899457861	0.98759664326058
7.3749682164822	0.98759607894516
7.3622902259332	0.98759552710251
7.3496557489581	0.98759498771590
7.3370645619187	0.98759446076719
7.3245164427071	0.98759394623684
7.3120111707317	0.98759344410394
7.2995485269053	0.98759295434621
7.2871282936315	0.98759247693999
7.2747502547925	0.98759201186032
7.2624141957364	0.98759155908089
7.2501199032648	0.98759111857407
7.2378671656205	0.98759069031095
7.2256557724753	0.98759027426133
7.2134855149182	0.98758987039374
7.2013561854432	0.98758947867544
7.1892675779376	0.98758909907247
7.1772194876706	0.98758873154962
7.1652117112811	0.98758837607047
7.1532440467669	0.98758803259741
7.1413162934731	0.98758770109161
7.1294282520809	0.98758738151311
7.1175797245964	0.98758707382075
7.1057705143399	0.98758677797224
7.0940004259347	0.98758649392416
7.0822692652965	0.98758622163195
7.0705768396226	0.98758596104997
7.0589229573817	0.98758571213146
7.0473074283028	0.98758547482860
7.0357300633654	0.98758524909249
7.0241906747891	0.98758503487318
7.0126890760234	0.98758483211969
7.0012250817375	0.98758464077999
6.9897985078107	0.98758446080107
6.9784091713222	0.98758429212889
6.9670568905415	0.98758413470843
6.9557414849188	0.98758398848371
6.9444627750753	0.98758385339778
6.9332205827937	0.98758372939273
6.9220147310090	0.98758361640975
6.9108450437990	0.98758351438907
6.8997113463751	0.98758342327003
6.8886134650735	0.98758334299109
6.8775512273457	0.98758327348979
6.8665244617499	0.98758321470283
6.8555329979419	0.98758316656606
6.8445766666667	0.98758312901445
6.8336552997493	0.98758310198218
6.8227687300865	0.98758308540259
6.8119167916383	0.98758307920821
6.8010993194192	0.98758308333080
6.7903161494904	0.98758309770131
6.7795671189507	0.98758312224996
6.7688520659291	0.98758315690619
6.7581708295762	0.98758320159869
6.7475232500563	0.98758325625546
6.7369091685393	0.98758332080374
6.7263284271932	0.98758339517009
6.7157808691756	0.98758347928037
6.7052663386267	0.98758357305978
6.6947846806610	0.98758367643281
6.6843357413601	0.98758378932334
6.6739193677649	0.98758391165459
6.6635354078684	0.98758404334915
6.6531837106081	0.98758418432898
6.6428641258586	0.98758433451546
6.6325765044248	0.98758449382936
6.6223206980340	0.98758466219086
6.6120965593295	0.98758483951961
6.6019039418630	0.98758502573465
6.5917427000879	0.98758522075451
6.5816126893524	0.98758542449718
6.5715137658922	0.98758563688012
6.5614457868243	0.98758585782029
6.5514086101399	0.98758608723415
6.5414020946978	0.98758632503767
6.5314261002179	0.98758657114635
6.5214804872743	0.98758682547522
6.5115651172893	0.98758708793887
6.5016798525266	0.98758735845145
6.4918245560849	0.98758763692668
6.4819990918919	0.98758792327786
6.4722033246978	0.98758821741788
6.4624371200690	0.98758851925925
6.4527003443823	0.98758882871410
6.4429928648184	0.98758914569418
6.4333145493562	0.98758947011088
6.4236652667667	0.98758980187525
6.4140448866068	0.98759014089799
6.4044532792138	0.98759048708950
6.3948903156997	0.98759084035984
6.3853558679446	0.98759120061878
6.3758498085921	0.98759156777579
6.3663720110427	0.98759194174007
6.3569223494487	0.98759232242055
6.3475006987084	0.98759270972588
6.3381069344609	0.98759310356449
6.3287409330800	0.98759350384455
6.3194025716695	0.98759391047401
6.3100917280572	0.98759432336061
6.3008082807902	0.98759474241189
6.2915521091291	0.98759516753518
6.2823230930427	0.98759559863762
6.2731211132036	0.98759603562621
6.2639460509820	0.98759647840775
6.2547977884415	0.98759692688891
6.2456762083333	0.98759738097621
6.2365811940919	0.98759784057603
6.2275126298297	0.98759830559465
6.2184704003319	0.98759877593823
6.2094543910522	0.98759925151281
6.2004644881075	0.98759973222435
6.1915005782734	0.98760021797876
6.1825625489792	0.98760070868183
6.1736502883031	0.98760120423931
6.1647636849681	0.98760170455692
6.1559026283368	0.98760220954030
6.1470670084068	0.98760271909509
6.1382567158067	0.98760323312689
6.1294716417910	0.98760375154131
6.1207116782360	0.98760427424392
6.1119767176351	0.98760480114035
6.1032666530945	0.98760533213619
6.0945813783289	0.98760586713711
6.0859207876573	0.98760640604878
6.0772847759984	0.98760694877693
6.0686732388664	0.98760749522734
6.0600860723671	0.98760804530587
6.0515231731934	0.98760859891844
6.0429844386212	0.98760915597104
6.0344697665056	0.98760971636978
6.0259790552764	0.98761028002086
6.0175122039342	0.98761084683059
6.0090691120465	0.98761141670538
6.0006496797438	0.98761198955182
5.9922538077154	0.98761256527657
5.9838813972056	0.98761314378650
5.9755323500100	0.98761372498859
5.9672065684713	0.98761430879000
5.9589039554760	0.98761489509807
5.9506244144502	0.98761548382031
5.9423678493558	0.98761607486442
5.9341341646873	0.98761666813830
5.9259232654675	0.98761726355007
5.9177350572444	0.98761786100804
5.9095694460871	0.98761846042076
5.9014263385827	0.98761906169701
5.8933056418321	0.98761966474581
5.8852072634472	0.98762026947642
5.8771311115468	0.98762087579837
5.8690770947533	0.98762148362144
5.8610451221896	0.98762209285570
5.8530351034752	0.98762270341149
5.8450469487229	0.98762331519942
5.8370805685358	0.98762392813044
5.8291358740035	0.98762454211577
5.8212127766990	0.98762515706694
5.8133111886756	0.98762577289582
5.8054310224632	0.98762638951460
5.7975721910656	0.98762700683579
5.7897346079567	0.98762762477227
5.7819181870781	0.98762824323724
5.7741228428351	0.98762886214428
5.7663484900942	0.98762948140732
5.7585950441798	0.98763010094066
5.7508624208709	0.98763072065900
5.7431505363985	0.98763134047740
5.7354593074421	0.98763196031132
5.7277886511272	0.98763258007664
5.7201384850219	0.98763319968962
5.7125087271341	0.98763381906695
5.7048992959087	0.98763443812574
5.6973101102242	0.98763505678351
5.6897410893908	0.98763567495824
5.6821921531463	0.98763629256834
5.6746632216544	0.98763690953266
5.6671542155009	0.98763752577051
5.6596650556919	0.98763814120167
5.6521956636501	0.98763875574638
5.6447459612126	0.98763936932535
5.6373158706281	0.98763998185977
5.6299053145540	0.98764059327132
5.6225142160540	0.98764120348217
5.6151424985952	0.98764181241499
5.6077900860456	0.98764241999297
5.6004569026714	0.98764302613977
5.5931428731343	0.98764363077960
5.5858479224893	0.98764423383720
5.5785719761816	0.98764483523780
5.5713149600446	0.98764543490720
5.5640768002970	0.98764603277172
5.5568574235403	0.98764662875823
5.5496567567568	0.98764722279416
5.5424747273063	0.98764781480749
5.5353112629247	0.98764840472674
5.5281662917204	0.98764899248105
5.5210397421731	0.98764957800007
5.5139315431304	0.98765016121408
5.5068416238060	0.98765074205391
5.4997699137773	0.98765132045100
5.4927163429828	0.98765189633736
5.4856808417200	0.98765246964562
5.4786633406433	0.98765304030900
5.4716637707611	0.98765360826135
5.4646820634342	0.98765417343709
5.4577181503732	0.98765473577130
5.4507719636364	0.98765529519967
5.4438434356274	0.98765585165850
5.4369324990932	0.98765640508475
5.4300390871219	0.98765695541599
5.4231631331404	0.98765750259044
5.4163045709124	0.98765804654698
5.4094633345363	0.98765858722512
5.4026393584430	0.98765912456503
5.3958325773938	0.98765965850753
5.3890429264785	0.98766018899412
5.3822703411131	0.98766071596695
5.3755147570378	0.98766123936885
5.3687761103152	0.98766175914332
5.3620543373278	0.98766227523453
5.3553493747767	0.98766278758734
5.3486611596789	0.98766329614730
5.3419896293656	0.98766380086064
5.3353347214807	0.98766430167428
5.3286963739780	0.98766479853585
5.3220745251198	0.98766529139367
5.3154691134752	0.98766578019675
5.3088800779175	0.98766626489484
5.3023073576229	0.98766674543837
5.2957508920685	0.98766722177849
5.2892106210303	0.98766769386707
5.2826864845815	0.98766816165670
5.2761784230905	0.98766862510069
5.2696863772192	0.98766908415306
5.2632102879213	0.98766953876860
5.2567500964405	0.98766998890278
5.2503057443082	0.98767043451183
5.2438771733427	0.98767087555272
5.2374643256464	0.98767131198314
5.2310671436050	0.98767174376154
5.2246855698850	0.98767217084711
5.2183195474326	0.98767259319977
5.2119690194715	0.98767301078021
5.2056339295016	0.98767342354986
5.1993142212973	0.98767383147090
5.1930098389052	0.98767423450627
5.1867207266436	0.98767463261968
5.1804468290997	0.98767502577557
5.1741880911288	0.98767541393916
5.1679444578521	0.98767579707644
5.1617158746556	0.98767617515415
5.1555022871883	0.98767654813980
5.1493036413604	0.98767691600167
5.1431198833419	0.98767727870882
5.1369509595613	0.98767763623106
5.1307968167037	0.98767798853900
5.1246574017094	0.98767833560399
5.1185326617722	0.98767867739820
5.1124225443383	0.98767901389453
5.1063269971044	0.98767934506670
5.1002459680163	0.98767967088918
5.0941794052676	0.98767999133724
5.0881272572980	0.98768030638691
5.0820894727920	0.98768061601503
5.0760660006773	0.98768092019920
5.0700567901235	0.98768121891781
5.0640617905405	0.98768151215005
5.0580809515775	0.98768179987588
5.0521142231210	0.98768208207606
5.0461615552937	0.98768235873210
5.0402228984533	0.98768262982636
5.0342982031906	0.98768289534192
5.0283874203287	0.98768315526271
5.0224905009214	0.98768340957340
5.0166073962517	0.98768365825948
5.0107380578305	0.98768390130721
5.0048824373957	0.98768413870365
4.9990404869101	0.98768437043664
4.9932121585610	0.98768459649482
4.9873974047579	0.98768481686761
4.9815961781323	0.98768503154522
4.9758084315353	0.98768524051865
4.9700341180371	0.98768544377969
4.9642731909256	0.98768564132092
4.9585256037049	0.98768583313569
4.9527913100942	0.98768601921815
4.9470702640264	0.98768619956325
4.9413624196473	0.98768637416670
4.9356677313138	0.98768654302501
4.9299861535932	0.98768670613546
4.9243176412615	0.98768686349614
4.9186621493027	0.98768701510588
4.9130196329072	0.98768716096434
4.9073900474709	0.98768730107192
4.9017733485939	0.98768743542982
4.8961694920790	0.98768756404002
4.8905784339315	0.98768768690526
4.8850001303569	0.98768780402906
4.8794345377604	0.98768791541573
4.8738816127459	0.98768802107034
4.8683413121143	0.98768812099872
4.8628135928629	0.98768821520749
4.8572984121841	0.98768830370403
4.8517957274640	0.98768838649649
4.8463054962819	0.98768846359376
4.8408276764088	0.98768853500552
4.8353622258065	0.98768860074221
