#Parameters = {thARC=0.4; nARC=1; thsub=1; p=1; nSub=4.75}
#"Wavelength / um"	"T (813) [Real Part]"
#---------------------------------------
14.989622900000	0.57466800792325
14.937342202292	0.57466810976482
14.885424925521	0.57466820648508
14.833867293419	0.57466829821365
14.782665581854	0.57466838507841
14.731816117936	0.57466846720544
14.681315279138	0.57466854471908
14.631159492435	0.57466861774192
14.581345233463	0.57466868639477
14.531869025691	0.57466875079670
14.482727439614	0.57466881106505
14.433917091960	0.57466886731540
14.385434644914	0.57466891966159
14.337276805356	0.57466896821574
14.289440324118	0.57466901308825
14.241921995249	0.57466905438778
14.194718655303	0.57466909222129
14.147827182633	0.57466912669403
14.101244496707	0.57466915790954
14.054967557431	0.57466918596967
14.008993364486	0.57466921097458
13.963318956684	0.57466923302274
13.917941411328	0.57466925221095
13.872857843591	0.57466926863436
13.828065405904	0.57466928238642
13.783561287356	0.57466929355896
13.739342713107	0.57466930224216
13.695406943810	0.57466930852455
13.651751275046	0.57466931249304
13.608373036768	0.57466931423292
13.565269592760	0.57466931382787
13.522438340099	0.57466931135997
13.479876708633	0.57466930690970
13.437582160466	0.57466930055596
13.395552189455	0.57466929237607
13.353784320713	0.57466928244581
13.312276110124	0.57466927083936
13.271025143869	0.57466925762940
13.230029037952	0.57466924288705
13.189285437747	0.57466922668191
13.148792017544	0.57466920908207
13.108546480105	0.57466919015411
13.068546556234	0.57466916996313
13.028790004346	0.57466914857273
12.989274610052	0.57466912604506
12.949998185745	0.57466910244080
12.910958570198	0.57466907781917
12.872153628167	0.57466905223797
12.833581250000	0.57466902575357
12.795239351259	0.57466899842093
12.757125872340	0.57466897029360
12.719238778108	0.57466894142375
12.681576057530	0.57466891186217
12.644135723323	0.57466888165828
12.606915811606	0.57466885086015
12.569914381551	0.57466881951451
12.533129515050	0.57466878766677
12.496559316382	0.57466875536101
12.460201911887	0.57466872264001
12.424055449648	0.57466868954528
12.388118099174	0.57466865611704
12.352388051092	0.57466862239423
12.316863516845	0.57466858841457
12.281542728390	0.57466855421453
12.246423937908	0.57466851982934
12.211505417515	0.57466848529305
12.176785458976	0.57466845063850
12.142262373431	0.57466841589733
12.107934491115	0.57466838110004
12.073800161095	0.57466834627596
12.039857751004	0.57466831145328
12.006105646776	0.57466827665904
11.972542252396	0.57466824191921
11.939165989646	0.57466820725863
11.905975297855	0.57466817270105
11.872968633663	0.57466813826916
11.840144470774	0.57466810398459
11.807501299724	0.57466806986793
11.775037627651	0.57466803593873
11.742751978065	0.57466800221553
11.710642890625	0.57466796871587
11.678708920919	0.57466793545630
11.646948640249	0.57466790245239
11.615360635413	0.57466786971878
11.583943508501	0.57466783726913
11.552695876686	0.57466780511620
11.521616372022	0.57466777327181
11.490703641242	0.57466774174690
11.459956345566	0.57466771055152
11.429373160503	0.57466767969483
11.398952775665	0.57466764918517
11.368693894577	0.57466761902999
11.338595234493	0.57466758923596
11.308655526217	0.57466755980891
11.278873513920	0.57466753075387
11.249247954972	0.57466750207509
11.219777619760	0.57466747377606
11.190461291527	0.57466744585950
11.161297766195	0.57466741832741
11.132285852209	0.57466739118103
11.103424370370	0.57466736442092
11.074712153676	0.57466733804693
11.046148047163	0.57466731205822
11.017730907755	0.57466728645331
10.989459604106	0.57466726123003
10.961333016453	0.57466723638560
10.933350036470	0.57466721191659
10.905509567115	0.57466718781898
10.877810522496	0.57466716408814
10.850251827723	0.57466714071886
10.822832418773	0.57466711770538
10.795551242348	0.57466709504135
10.768407255747	0.57466707271992
10.741399426729	0.57466705073369
10.714526733381	0.57466702907475
10.687788163993	0.57466700773470
10.661182716927	0.57466698670466
10.634709400497	0.57466696597527
10.608367232838	0.57466694553672
10.582155241793	0.57466692537875
10.556072464789	0.57466690549069
10.530117948718	0.57466688586144
10.504290749825	0.57466686647950
10.478589933590	0.57466684733299
10.453014574616	0.57466682840966
10.427563756522	0.57466680969687
10.402236571825	0.57466679118168
10.377032121841	0.57466677285078
10.351949516575	0.57466675469056
10.326987874612	0.57466673668708
10.302146323024	0.57466671882613
10.277423997257	0.57466670109320
10.252820041040	0.57466668347354
10.228333606278	0.57466666595210
10.203963852961	0.57466664851363
10.179709949066	0.57466663114262
10.155571070461	0.57466661382337
10.131546400811	0.57466659653994
10.107635131490	0.57466657927624
10.083836461487	0.57466656201595
10.060149597315	0.57466654474263
10.036573752929	0.57466652743965
10.013108149633	0.57466651009025
9.9897520159947	0.57466649267754
9.9665045877660	0.57466647518451
9.9433651077944	0.57466645759403
9.9203328259431	0.57466643988888
9.8974069990096	0.57466642205175
9.8745868906456	0.57466640406528
9.8518717712783	0.57466638591201
9.8292609180328	0.57466636757445
9.8067536146549	0.57466634903507
9.7843491514360	0.57466633027631
9.7620468251384	0.57466631128058
9.7398459389214	0.57466629203030
9.7177458022690	0.57466627250787
9.6957457309185	0.57466625269573
9.6738450467893	0.57466623257632
9.6520430779137	0.57466621213213
9.6303391583681	0.57466619134569
9.6087326282051	0.57466617019957
9.5872228333866	0.57466614867644
9.5658091257179	0.57466612675899
9.5444908627826	0.57466610443005
9.5232674078780	0.57466608167251
9.5021381299525	0.57466605846937
9.4811024035421	0.57466603480374
9.4601596087094	0.57466601065886
9.4393091309824	0.57466598601808
9.4185503612944	0.57466596086492
9.3978826959248	0.57466593518302
9.3773055364404	0.57466590895619
9.3568182896380	0.57466588216840
9.3364203674868	0.57466585480380
9.3161111870727	0.57466582684672
9.2958901705426	0.57466579828167
9.2757567450495	0.57466576909337
9.2557103426984	0.57466573926675
9.2357504004929	0.57466570878693
9.2158763602828	0.57466567763928
9.1960876687117	0.57466564580939
9.1763837771656	0.57466561328306
9.1567641417227	0.57466558004637
9.1372282231027	0.57466554608563
9.1177754866180	0.57466551138741
9.0984054021244	0.57466547593856
9.0791174439733	0.57466543972617
9.0599110909640	0.57466540273763
9.0407858262967	0.57466536496061
9.0217411375263	0.57466532638307
9.0027765165165	0.57466528699325
8.9838914593947	0.57466524677971
8.9650854665072	0.57466520573132
8.9463580423754	0.57466516383724
8.9277086956522	0.57466512108697
8.9091369390788	0.57466507747033
8.8906422894425	0.57466503297746
8.8722242675348	0.57466498759885
8.8538823981099	0.57466494132531
8.8356162098438	0.57466489414801
8.8174252352941	0.57466484605846
8.7993090108600	0.57466479704853
8.7812670767428	0.57466474711043
8.7632989769073	0.57466469623675
8.7454042590432	0.57466464442045
8.7275824745269	0.57466459165484
8.7098331783847	0.57466453793361
8.6921559292549	0.57466448325083
8.6745502893519	0.57466442760096
8.6570158244297	0.57466437097883
8.6395521037464	0.57466431337966
8.6221587000288	0.57466425479906
8.6048351894374	0.57466419523304
8.5875811515325	0.57466413467799
8.5703961692396	0.57466407313071
8.5532798288160	0.57466401058841
8.5362317198178	0.57466394704868
8.5192514350668	0.57466388250953
8.5023385706183	0.57466381696937
8.4854927257288	0.57466375042704
8.4687135028249	0.57466368288176
8.4520005074711	0.57466361433318
8.4353533483399	0.57466354478137
8.4187716371806	0.57466347422680
8.4022549887892	0.57466340267037
8.3858030209790	0.57466333011338
8.3694153545505	0.57466325655757
8.3530916132627	0.57466318200508
8.3368314238042	0.57466310645849
8.3206344157646	0.57466302992078
8.3045002216066	0.57466295239536
8.2884284766381	0.57466287388607
8.2724188189845	0.57466279439716
8.2564708895621	0.57466271393330
8.2405843320506	0.57466263249959
8.2247587928669	0.57466255010154
8.2089939211391	0.57466246674508
8.1932893686800	0.57466238243657
8.1776447899618	0.57466229718278
8.1620598420909	0.57466221099090
8.1465341847826	0.57466212386854
8.1310674803363	0.57466203582373
8.1156593936113	0.57466194686489
8.1003095920022	0.57466185700088
8.0850177454153	0.57466176624097
8.0697835262450	0.57466167459481
8.0546066093498	0.57466158207250
8.0394866720300	0.57466148868452
8.0244233940043	0.57466139444175
8.0094164573871	0.57466129935550
7.9944655466667	0.57466120343744
7.9795703486825	0.57466110669967
7.9647305526036	0.57466100915467
7.9499458499072	0.57466091081532
7.9352159343568	0.57466081169488
7.9205405019815	0.57466071180701
7.9059192510549	0.57466061116572
7.8913518820742	0.57466050978545
7.8768380977404	0.57466040768098
7.8623776029373	0.57466030486747
7.8479701047120	0.57466020136047
7.8336153122550	0.57466009717586
7.8193129368805	0.57465999232993
7.8050626920073	0.57465988683928
7.7908642931393	0.57465978072090
7.7767174578470	0.57465967399213
7.7626219057483	0.57465956667062
7.7485773584906	0.57465945877442
7.7345835397317	0.57465935032186
7.7206401751223	0.57465924133165
7.7067469922879	0.57465913182280
7.6929037208109	0.57465902181466
7.6791100922131	0.57465891132690
7.6653658399386	0.57465880037950
7.6516706993364	0.57465868899274
7.6380244076433	0.57465857718723
7.6244267039674	0.57465846498386
7.6108773292714	0.57465835240382
7.5973760263558	0.57465823946859
7.5839225398432	0.57465812619993
7.5705166161616	0.57465801261989
7.5571580035291	0.57465789875078
7.5438464519376	0.57465778461518
7.5305817131374	0.57465767023595
7.5173635406219	0.57465755563616
7.5041916896120	0.57465744083919
7.4910659170415	0.57465732586861
7.4779859815415	0.57465721074826
7.4649516434263	0.57465709550221
7.4519626646781	0.57465698015472
7.4390188089330	0.57465686473032
7.4261198414664	0.57465674925371
7.4132655291790	0.57465663374982
7.4004556405826	0.57465651824378
7.3876899457861	0.57465640276089
7.3749682164822	0.57465628732666
7.3622902259332	0.57465617196677
7.3496557489581	0.57465605670707
7.3370645619187	0.57465594157358
7.3245164427071	0.57465582659247
7.3120111707317	0.57465571179008
7.2995485269053	0.57465559719287
7.2871282936315	0.57465548282746
7.2747502547925	0.57465536872058
7.2624141957364	0.57465525489910
7.2501199032648	0.57465514138999
7.2378671656205	0.57465502822035
7.2256557724753	0.57465491541737
7.2134855149182	0.57465480300832
7.2013561854432	0.57465469102056
7.1892675779376	0.57465457948156
7.1772194876706	0.57465446841882
7.1652117112811	0.57465435785993
7.1532440467669	0.57465424783252
7.1413162934731	0.57465413836428
7.1294282520809	0.57465402948293
7.1175797245964	0.57465392121623
7.1057705143399	0.57465381359196
7.0940004259347	0.57465370663793
7.0822692652965	0.57465360038193
7.0705768396226	0.57465349485178
7.0589229573817	0.57465339007529
7.0473074283028	0.57465328608024
7.0357300633654	0.57465318289439
7.0241906747891	0.57465308054550
7.0126890760234	0.57465297906124
7.0012250817375	0.57465287846928
6.9897985078107	0.57465277879720
6.9784091713222	0.57465268007256
6.9670568905415	0.57465258232280
6.9557414849188	0.57465248557531
6.9444627750753	0.57465238985740
6.9332205827937	0.57465229519626
6.9220147310090	0.57465220161900
6.9108450437990	0.57465210915261
6.8997113463751	0.57465201782396
6.8886134650735	0.57465192765980
6.8775512273457	0.57465183868672
6.8665244617499	0.57465175093121
6.8555329979419	0.57465166441957
6.8445766666667	0.57465157917797
6.8336552997493	0.57465149523238
6.8227687300865	0.57465141260863
6.8119167916383	0.57465133133234
6.8010993194192	0.57465125142894
6.7903161494904	0.57465117292369
6.7795671189507	0.57465109584160
6.7688520659291	0.57465102020750
6.7581708295762	0.57465094604597
6.7475232500563	0.57465087338138
6.7369091685393	0.57465080223785
6.7263284271932	0.57465073263925
6.7157808691756	0.57465066460919
6.7052663386267	0.57465059817104
6.6947846806610	0.57465053334789
6.6843357413601	0.57465047016252
6.6739193677649	0.57465040863747
6.6635354078684	0.57465034879496
6.6531837106081	0.57465029065692
6.6428641258586	0.57465023424496
6.6325765044248	0.57465017958037
6.6223206980340	0.57465012668414
6.6120965593295	0.57465007557689
6.6019039418630	0.57465002627894
6.5917427000879	0.57464997881024
6.5816126893524	0.57464993319037
6.5715137658922	0.57464988943860
6.5614457868243	0.57464984757377
6.5514086101399	0.57464980761439
6.5414020946978	0.57464976957856
6.5314261002179	0.57464973348401
6.5214804872743	0.57464969934804
6.5115651172893	0.57464966718758
6.5016798525266	0.57464963701914
6.4918245560849	0.57464960885878
6.4819990918919	0.57464958272219
6.4722033246978	0.57464955862457
6.4624371200690	0.57464953658073
6.4527003443823	0.57464951660499
6.4429928648184	0.57464949871126
6.4333145493562	0.57464948291296
6.4236652667667	0.57464946922305
6.4140448866068	0.57464945765404
6.4044532792138	0.57464944821793
6.3948903156997	0.57464944092626
6.3853558679446	0.57464943579007
6.3758498085921	0.57464943281990
6.3663720110427	0.57464943202580
6.3569223494487	0.57464943341730
6.3475006987084	0.57464943700341
6.3381069344609	0.57464944279264
6.3287409330800	0.57464945079295
6.3194025716695	0.57464946101180
6.3100917280572	0.57464947345608
6.3008082807902	0.57464948813215
6.2915521091291	0.57464950504584
6.2823230930427	0.57464952420239
6.2731211132036	0.57464954560652
6.2639460509820	0.57464956926236
6.2547977884415	0.57464959517349
6.2456762083333	0.57464962334290
6.2365811940919	0.57464965377302
6.2275126298297	0.57464968646567
6.2184704003319	0.57464972142212
6.2094543910522	0.57464975864301
6.2004644881075	0.57464979812842
6.1915005782734	0.57464983987780
6.1825625489792	0.57464988389002
6.1736502883031	0.57464993016331
6.1647636849681	0.57464997869531
6.1559026283368	0.57465002948305
6.1470670084068	0.57465008252292
6.1382567158067	0.57465013781069
6.1294716417910	0.57465019534152
6.1207116782360	0.57465025510990
6.1119767176351	0.57465031710974
6.1032666530945	0.57465038133426
6.0945813783289	0.57465044777606
6.0859207876573	0.57465051642712
6.0772847759984	0.57465058727872
6.0686732388664	0.57465066032154
6.0600860723671	0.57465073554558
6.0515231731934	0.57465081294020
6.0429844386212	0.57465089249408
6.0344697665056	0.57465097419526
6.0259790552764	0.57465105803112
6.0175122039342	0.57465114398836
6.0090691120465	0.57465123205302
6.0006496797438	0.57465132221048
5.9922538077154	0.57465141444544
5.9838813972056	0.57465150874193
5.9755323500100	0.57465160508331
5.9672065684713	0.57465170345227
5.9589039554760	0.57465180383081
5.9506244144502	0.57465190620026
5.9423678493558	0.57465201054127
5.9341341646873	0.57465211683383
5.9259232654675	0.57465222505722
5.9177350572444	0.57465233519005
5.9095694460871	0.57465244721027
5.9014263385827	0.57465256109512
5.8933056418321	0.57465267682118
5.8852072634472	0.57465279436432
5.8771311115468	0.57465291369977
5.8690770947533	0.57465303480203
5.8610451221896	0.57465315764496
5.8530351034752	0.57465328220171
5.8450469487229	0.57465340844478
5.8370805685358	0.57465353634595
5.8291358740035	0.57465366587635
5.8212127766990	0.57465379700643
5.8133111886756	0.57465392970595
5.8054310224632	0.57465406394400
5.7975721910656	0.57465419968900
5.7897346079567	0.57465433690868
5.7819181870781	0.57465447557012
5.7741228428351	0.57465461563971
5.7663484900942	0.57465475708319
5.7585950441798	0.57465489986560
5.7508624208709	0.57465504395137
5.7431505363985	0.57465518930421
5.7354593074421	0.57465533588721
5.7277886511272	0.57465548366277
5.7201384850219	0.57465563259267
5.7125087271341	0.57465578263802
5.7048992959087	0.57465593375926
5.6973101102242	0.57465608591622
5.6897410893908	0.57465623906807
5.6821921531463	0.57465639317332
5.6746632216544	0.57465654818988
5.6671542155009	0.57465670407500
5.6596650556919	0.57465686078531
5.6521956636501	0.57465701827681
5.6447459612126	0.57465717650488
5.6373158706281	0.57465733542428
5.6299053145540	0.57465749498916
5.6225142160540	0.57465765515304
5.6151424985952	0.57465781586887
5.6077900860456	0.57465797708898
5.6004569026714	0.57465813876508
5.5931428731343	0.57465830084834
5.5858479224893	0.57465846328930
5.5785719761816	0.57465862603793
5.5713149600446	0.57465878904363
5.5640768002970	0.57465895225523
5.5568574235403	0.57465911562098
5.5496567567568	0.57465927908859
5.5424747273063	0.57465944260520
5.5353112629247	0.57465960611740
5.5281662917204	0.57465976957125
5.5210397421731	0.57465993291227
5.5139315431304	0.57466009608543
5.5068416238060	0.57466025903520
5.4997699137773	0.57466042170553
5.4927163429828	0.57466058403984
5.4856808417200	0.57466074598107
5.4786633406433	0.57466090747163
5.4716637707611	0.57466106845348
5.4646820634342	0.57466122886806
5.4577181503732	0.57466138865634
5.4507719636364	0.57466154775885
5.4438434356274	0.57466170611561
5.4369324990932	0.57466186366623
5.4300390871219	0.57466202034985
5.4231631331404	0.57466217610517
5.4163045709124	0.57466233087045
5.4094633345363	0.57466248458356
5.4026393584430	0.57466263718193
5.3958325773938	0.57466278860257
5.3890429264785	0.57466293878212
5.3822703411131	0.57466308765681
5.3755147570378	0.57466323516250
5.3687761103152	0.57466338123466
5.3620543373278	0.57466352580842
5.3553493747767	0.57466366881852
5.3486611596789	0.57466381019940
5.3419896293656	0.57466394988511
5.3353347214807	0.57466408780940
5.3286963739780	0.57466422390570
5.3220745251198	0.57466435810713
5.3154691134752	0.57466449034650
5.3088800779175	0.57466462055633
5.3023073576229	0.57466474866887
5.2957508920685	0.57466487461608
5.2892106210303	0.57466499832968
5.2826864845815	0.57466511974111
5.2761784230905	0.57466523878160
5.2696863772192	0.57466535538212
5.2632102879213	0.57466546947344
5.2567500964405	0.57466558098610
5.2503057443082	0.57466568985045
5.2438771733427	0.57466579599665
5.2374643256464	0.57466589935467
5.2310671436050	0.57466599985433
5.2246855698850	0.57466609742526
5.2183195474326	0.57466619199698
5.2119690194715	0.57466628349884
5.2056339295016	0.57466637186008
5.1993142212973	0.57466645700983
5.1930098389052	0.57466653887710
5.1867207266436	0.57466661739082
5.1804468290997	0.57466669247984
5.1741880911288	0.57466676407293
5.1679444578521	0.57466683209880
5.1617158746556	0.57466689648613
5.1555022871883	0.57466695716355
5.1493036413604	0.57466701405967
5.1431198833419	0.57466706710308
5.1369509595613	0.57466711622239
5.1307968167037	0.57466716134619
5.1246574017094	0.57466720240313
5.1185326617722	0.57466723932187
5.1124225443383	0.57466727203111
5.1063269971044	0.57466730045964
5.1002459680163	0.57466732453629
5.0941794052676	0.57466734419000
5.0881272572980	0.57466735934977
5.0820894727920	0.57466736994475
5.0760660006773	0.57466737590419
5.0700567901235	0.57466737715745
5.0640617905405	0.57466737363408
5.0580809515775	0.57466736526375
5.0521142231210	0.57466735197631
5.0461615552937	0.57466733370181
5.0402228984533	0.57466731037047
5.0342982031906	0.57466728191272
5.0283874203287	0.57466724825923
5.0224905009214	0.57466720934087
5.0166073962517	0.57466716508880
5.0107380578305	0.57466711543438
5.0048824373957	0.57466706030930
4.9990404869101	0.57466699964548
4.9932121585610	0.57466693337518
4.9873974047579	0.57466686143094
4.9815961781323	0.57466678374562
4.9758084315353	0.57466670025244
4.9700341180371	0.57466661088495
4.9642731909256	0.57466651557705
4.9585256037049	0.57466641426303
4.9527913100942	0.57466630687756
4.9470702640264	0.57466619335571
4.9413624196473	0.57466607363295
4.9356677313138	0.57466594764519
4.9299861535932	0.57466581532877
4.9243176412615	0.57466567662047
4.9186621493027	0.57466553145756
4.9130196329072	0.57466537977775
4.9073900474709	0.57466522151926
4.9017733485939	0.57466505662081
4.8961694920790	0.57466488502164
4.8905784339315	0.57466470666149
4.8850001303569	0.57466452148068
4.8794345377604	0.57466432942004
4.8738816127459	0.57466413042099
4.8683413121143	0.57466392442553
4.8628135928629	0.57466371137624
4.8572984121841	0.57466349121631
4.8517957274640	0.57466326388954
4.8463054962819	0.57466302934037
4.8408276764088	0.57466278751386
4.8353622258065	0.57466253835575
