#Parameters = {thARC=0; nARC=2.75; thsub=1; p=1; nSub=4.75}
#"Wavelength / um"	"T (853) [Real Part]"
#---------------------------------------
14.989622900000	0.57466862057184
14.937342202292	0.57472331112442
14.885424925521	0.57477637711437
14.833867293419	0.57482784080531
14.782665581854	0.57487772438217
14.731816117936	0.57492604994869
14.681315279138	0.57497283952493
14.631159492435	0.57501811504481
14.581345233463	0.57506189835370
14.531869025691	0.57510421120609
14.482727439614	0.57514507526326
14.433917091960	0.57518451209099
14.385434644914	0.57522254315732
14.337276805356	0.57525918983038
14.289440324118	0.57529447337622
14.241921995249	0.57532841495668
14.194718655303	0.57536103562737
14.147827182633	0.57539235633559
14.101244496707	0.57542239791838
14.054967557431	0.57545118110054
14.008993364486	0.57547872649278
13.963318956684	0.57550505458980
13.917941411328	0.57553018576849
13.872857843591	0.57555414028617
13.828065405904	0.57557693827883
13.783561287356	0.57559859975945
13.739342713107	0.57561914461631
13.695406943810	0.57563859261142
13.651751275046	0.57565696337891
13.608373036768	0.57567427642352
13.565269592760	0.57569055111909
13.522438340099	0.57570580670711
13.479876708633	0.57572006229532
13.437582160466	0.57573333685631
13.395552189455	0.57574564922621
13.353784320713	0.57575701810340
13.312276110124	0.57576746204721
13.271025143869	0.57577699947677
13.230029037952	0.57578564866978
13.189285437747	0.57579342776140
13.148792017544	0.57580035474313
13.108546480105	0.57580644746176
13.068546556234	0.57581172361836
13.028790004346	0.57581620076725
12.989274610052	0.57581989631511
12.949998185745	0.57582282752000
12.910958570198	0.57582501149053
12.872153628167	0.57582646518504
12.833581250000	0.57582720541072
12.795239351259	0.57582724882291
12.757125872340	0.57582661192437
12.719238778108	0.57582531106454
12.681576057530	0.57582336243889
12.644135723323	0.57582078208833
12.606915811606	0.57581758589857
12.569914381551	0.57581378959961
12.533129515050	0.57580940876517
12.496559316382	0.57580445881222
12.460201911887	0.57579895500053
12.424055449648	0.57579291243224
12.388118099174	0.57578634605143
12.352388051092	0.57577927064384
12.316863516845	0.57577170083645
12.281542728390	0.57576365109726
12.246423937908	0.57575513573497
12.211505417515	0.57574616889876
12.176785458976	0.57573676457809
12.142262373431	0.57572693660254
12.107934491115	0.57571669864162
12.073800161095	0.57570606420468
12.039857751004	0.57569504664084
12.006105646776	0.57568365913889
11.972542252396	0.57567191472729
11.939165989646	0.57565982627415
11.905975297855	0.57564740648726
11.872968633663	0.57563466791415
11.840144470774	0.57562162294215
11.807501299724	0.57560828379851
11.775037627651	0.57559466255051
11.742751978065	0.57558077110565
11.710642890625	0.57556662121178
11.678708920919	0.57555222445736
11.646948640249	0.57553759227166
11.615360635413	0.57552273592503
11.583943508501	0.57550766652914
11.552695876686	0.57549239503735
11.521616372022	0.57547693224497
11.490703641242	0.57546128878965
11.459956345566	0.57544547515173
11.429373160503	0.57542950165463
11.398952775665	0.57541337846528
11.368693894577	0.57539711559455
11.338595234493	0.57538072289770
11.308655526217	0.57536421007485
11.278873513920	0.57534758667150
11.249247954972	0.57533086207904
11.219777619760	0.57531404553525
11.190461291527	0.57529714612492
11.161297766195	0.57528017278038
11.132285852209	0.57526313428210
11.103424370370	0.57524603925931
11.074712153676	0.57522889619062
11.046148047163	0.57521171340467
11.017730907755	0.57519449908081
10.989459604106	0.57517726124975
10.961333016453	0.57516000779429
10.933350036470	0.57514274645000
10.905509567115	0.57512548480596
10.877810522496	0.57510823030555
10.850251827723	0.57509099024712
10.822832418773	0.57507377178485
10.795551242348	0.57505658192949
10.768407255747	0.57503942754917
10.741399426729	0.57502231537025
10.714526733381	0.57500525197809
10.687788163993	0.57498824381797
10.661182716927	0.57497129719587
10.634709400497	0.57495441827941
10.608367232838	0.57493761309867
10.582155241793	0.57492088754714
10.556072464789	0.57490424738257
10.530117948718	0.57488769822793
10.504290749825	0.57487124557235
10.478589933590	0.57485489477199
10.453014574616	0.57483865105107
10.427563756522	0.57482251950278
10.402236571825	0.57480650509026
10.377032121841	0.57479061264761
10.351949516575	0.57477484688083
10.326987874612	0.57475921236885
10.302146323024	0.57474371356455
10.277423997257	0.57472835479573
10.252820041040	0.57471314026619
10.228333606278	0.57469807405671
10.203963852961	0.57468316012614
10.179709949066	0.57466840231242
10.155571070461	0.57465380433362
10.131546400811	0.57463936978906
10.107635131490	0.57462510216030
10.083836461487	0.57461100481229
10.060149597315	0.57459708099441
10.036573752929	0.57458333384157
10.013108149633	0.57456976637530
9.9897520159947	0.57455638150487
9.9665045877660	0.57454318202836
9.9433651077944	0.57453017063379
9.9203328259431	0.57451734990026
9.8974069990096	0.57450472229900
9.8745868906456	0.57449229019459
9.8518717712783	0.57448005584600
9.8292609180328	0.57446802140777
9.8067536146549	0.57445618893115
9.7843491514360	0.57444456036521
9.7620468251384	0.57443313755800
9.7398459389214	0.57442192225771
9.7177458022690	0.57441091611379
9.6957457309185	0.57440012067813
9.6738450467893	0.57438953740620
9.6520430779137	0.57437916765820
9.6303391583681	0.57436901270023
9.6087326282051	0.57435907370546
9.5872228333866	0.57434935175527
9.5658091257179	0.57433984784043
9.5444908627826	0.57433056286226
9.5232674078780	0.57432149763379
9.5021381299525	0.57431265288094
9.4811024035421	0.57430402924370
9.4601596087094	0.57429562727725
9.4393091309824	0.57428744745319
9.4185503612944	0.57427949016065
9.3978826959248	0.57427175570752
9.3773055364404	0.57426424432157
9.3568182896380	0.57425695615165
9.3364203674868	0.57424989126884
9.3161111870727	0.57424304966763
9.2958901705426	0.57423643126706
9.2757567450495	0.57423003591195
9.2557103426984	0.57422386337399
9.2357504004929	0.57421791335294
9.2158763602828	0.57421218547781
9.1960876687117	0.57420667930798
9.1763837771656	0.57420139433438
9.1567641417227	0.57419632998066
9.1372282231027	0.57419148560432
9.1177754866180	0.57418686049787
9.0984054021244	0.57418245389001
9.0791174439733	0.57417826494671
9.0599110909640	0.57417429277243
9.0407858262967	0.57417053641123
9.0217411375263	0.57416699484788
9.0027765165165	0.57416366700907
8.9838914593947	0.57416055176447
8.9650854665072	0.57415764792789
8.9463580423754	0.57415495425841
8.9277086956522	0.57415246946151
8.9091369390788	0.57415019219017
8.8906422894425	0.57414812104599
8.8722242675348	0.57414625458032
8.8538823981099	0.57414459129532
8.8356162098438	0.57414312964514
8.8174252352941	0.57414186803694
8.7993090108600	0.57414080483204
8.7812670767428	0.57413993834697
8.7632989769073	0.57413926685459
8.7454042590432	0.57413878858515
8.7275824745269	0.57413850172735
8.7098331783847	0.57413840442947
8.6921559292549	0.57413849480036
8.6745502893519	0.57413877091054
8.6570158244297	0.57413923079326
8.6395521037464	0.57413987244554
8.6221587000288	0.57414069382920
8.6048351894374	0.57414169287191
8.5875811515325	0.57414286746823
8.5703961692396	0.57414421548063
8.5532798288160	0.57414573474049
8.5362317198178	0.57414742304916
8.5192514350668	0.57414927817892
8.5023385706183	0.57415129787402
8.4854927257288	0.57415347985162
8.4687135028249	0.57415582180287
8.4520005074711	0.57415832139381
8.4353533483399	0.57416097626637
8.4187716371806	0.57416378403936
8.4022549887892	0.57416674230941
8.3858030209790	0.57416984865193
8.3694153545505	0.57417310062208
8.3530916132627	0.57417649575566
8.3368314238042	0.57418003157010
8.3206344157646	0.57418370556538
8.3045002216066	0.57418751522490
8.2884284766381	0.57419145801644
8.2724188189845	0.57419553139307
8.2564708895621	0.57419973279401
8.2405843320506	0.57420405964556
8.2247587928669	0.57420850936194
8.2089939211391	0.57421307934621
8.1932893686800	0.57421776699111
8.1776447899618	0.57422256967993
8.1620598420909	0.57422748478733
8.1465341847826	0.57423250968026
8.1310674803363	0.57423764171871
8.1156593936113	0.57424287825657
8.1003095920022	0.57424821664248
8.0850177454153	0.57425365422059
8.0697835262450	0.57425918833140
8.0546066093498	0.57426481631254
8.0394866720300	0.57427053549956
8.0244233940043	0.57427634322670
8.0094164573871	0.57428223682767
7.9944655466667	0.57428821363639
7.9795703486825	0.57429427098778
7.9647305526036	0.57430040621848
7.9499458499072	0.57430661666757
7.9352159343568	0.57431289967733
7.9205405019815	0.57431925259393
7.9059192510549	0.57432567276815
7.8913518820742	0.57433215755610
7.8768380977404	0.57433870431985
7.8623776029373	0.57434531042819
7.8479701047120	0.57435197325725
7.8336153122550	0.57435869019117
7.8193129368805	0.57436545862280
7.8050626920073	0.57437227595428
7.7908642931393	0.57437913959771
7.7767174578470	0.57438604697579
7.7626219057483	0.57439299552241
7.7485773584906	0.57439998268331
7.7345835397317	0.57440700591660
7.7206401751223	0.57441406269342
7.7067469922879	0.57442115049850
7.6929037208109	0.57442826683073
7.6791100922131	0.57443540920373
7.6653658399386	0.57444257514638
7.6516706993364	0.57444976220341
7.6380244076433	0.57445696793590
7.6244267039674	0.57446418992180
7.6108773292714	0.57447142575649
7.5973760263558	0.57447867305325
7.5839225398432	0.57448592944375
7.5705166161616	0.57449319257859
7.5571580035291	0.57450046012773
7.5438464519376	0.57450772978097
7.5305817131374	0.57451499924842
7.5173635406219	0.57452226626095
7.5041916896120	0.57452952857064
7.4910659170415	0.57453678395119
7.4779859815415	0.57454403019834
7.4649516434263	0.57455126513033
7.4519626646781	0.57455848658823
7.4390188089330	0.57456569243641
7.4261198414664	0.57457288056288
7.4132655291790	0.57458004887967
7.4004556405826	0.57458719532320
7.3876899457861	0.57459431785463
7.3749682164822	0.57460141446025
7.3622902259332	0.57460848315175
7.3496557489581	0.57461552196659
7.3370645619187	0.57462252896831
7.3245164427071	0.57462950224685
7.3120111707317	0.57463643991883
7.2995485269053	0.57464334012785
7.2871282936315	0.57465020104479
7.2747502547925	0.57465702086804
7.2624141957364	0.57466379782383
7.2501199032648	0.57467053016640
7.2378671656205	0.57467721617832
7.2256557724753	0.57468385417067
7.2134855149182	0.57469044248330
7.2013561854432	0.57469697948506
7.1892675779376	0.57470346357396
7.1772194876706	0.57470989317739
7.1652117112811	0.57471626675234
7.1532440467669	0.57472258278554
7.1413162934731	0.57472883979366
7.1294282520809	0.57473503632345
7.1175797245964	0.57474117095192
7.1057705143399	0.57474724228646
7.0940004259347	0.57475324896499
7.0822692652965	0.57475918965609
7.0705768396226	0.57476506305913
7.0589229573817	0.57477086790433
7.0473074283028	0.57477660295294
7.0357300633654	0.57478226699725
7.0241906747891	0.57478785886076
7.0126890760234	0.57479337739817
7.0012250817375	0.57479882149551
6.9897985078107	0.57480419007018
6.9784091713222	0.57480948207099
6.9670568905415	0.57481469647822
6.9557414849188	0.57481983230364
6.9444627750753	0.57482488859054
6.9332205827937	0.57482986441376
6.9220147310090	0.57483475887968
6.9108450437990	0.57483957112624
6.8997113463751	0.57484430032290
6.8886134650735	0.57484894567069
6.8775512273457	0.57485350640212
6.8665244617499	0.57485798178119
6.8555329979419	0.57486237110333
6.8445766666667	0.57486667369538
6.8336552997493	0.57487088891551
6.8227687300865	0.57487501615319
6.8119167916383	0.57487905482909
6.8010993194192	0.57488300439501
6.7903161494904	0.57488686433382
6.7795671189507	0.57489063415937
6.7688520659291	0.57489431341635
6.7581708295762	0.57489790168023
6.7475232500563	0.57490139855714
6.7369091685393	0.57490480368373
6.7263284271932	0.57490811672706
6.7157808691756	0.57491133738449
6.7052663386267	0.57491446538349
6.6947846806610	0.57491750048153
6.6843357413601	0.57492044246594
6.6739193677649	0.57492329115372
6.6635354078684	0.57492604639137
6.6531837106081	0.57492870805475
6.6428641258586	0.57493127604891
6.6325765044248	0.57493375030783
6.6223206980340	0.57493613079434
6.6120965593295	0.57493841749982
6.6019039418630	0.57494061044408
6.5917427000879	0.57494270967509
6.5816126893524	0.57494471526881
6.5715137658922	0.57494662732894
6.5614457868243	0.57494844598671
6.5514086101399	0.57495017140065
6.5414020946978	0.57495180375636
6.5314261002179	0.57495334326623
6.5214804872743	0.57495479016926
6.5115651172893	0.57495614473072
6.5016798525266	0.57495740724199
6.4918245560849	0.57495857802023
6.4819990918919	0.57495965740812
6.4722033246978	0.57496064577361
6.4624371200690	0.57496154350965
6.4527003443823	0.57496235103387
6.4429928648184	0.57496306878832
6.4333145493562	0.57496369723918
6.4236652667667	0.57496423687646
6.4140448866068	0.57496468821370
6.4044532792138	0.57496505178768
6.3948903156997	0.57496532815808
6.3853558679446	0.57496551790719
6.3758498085921	0.57496562163962
6.3663720110427	0.57496563998192
6.3569223494487	0.57496557358232
6.3475006987084	0.57496542311036
6.3381069344609	0.57496518925659
6.3287409330800	0.57496487273219
6.3194025716695	0.57496447426869
6.3100917280572	0.57496399461761
6.3008082807902	0.57496343455009
6.2915521091291	0.57496279485658
6.2823230930427	0.57496207634648
6.2731211132036	0.57496127984775
6.2639460509820	0.57496040620664
6.2547977884415	0.57495945628723
6.2456762083333	0.57495843097117
6.2365811940919	0.57495733115722
6.2275126298297	0.57495615776096
6.2184704003319	0.57495491171441
6.2094543910522	0.57495359396561
6.2004644881075	0.57495220547832
6.1915005782734	0.57495074723157
6.1825625489792	0.57494922021938
6.1736502883031	0.57494762545027
6.1647636849681	0.57494596394700
6.1559026283368	0.57494423674607
6.1470670084068	0.57494244489743
6.1382567158067	0.57494058946407
6.1294716417910	0.57493867152161
6.1207116782360	0.57493669215793
6.1119767176351	0.57493465247280
6.1032666530945	0.57493255357748
6.0945813783289	0.57493039659430
6.0859207876573	0.57492818265633
6.0772847759984	0.57492591290694
6.0686732388664	0.57492358849942
6.0600860723671	0.57492121059661
6.0515231731934	0.57491878037047
6.0429844386212	0.57491629900174
6.0344697665056	0.57491376767947
6.0259790552764	0.57491118760072
6.0175122039342	0.57490855997008
6.0090691120465	0.57490588599932
6.0006496797438	0.57490316690702
5.9922538077154	0.57490040391811
5.9838813972056	0.57489759826353
5.9755323500100	0.57489475117983
5.9672065684713	0.57489186390877
5.9589039554760	0.57488893769690
5.9506244144502	0.57488597379523
5.9423678493558	0.57488297345880
5.9341341646873	0.57487993794627
5.9259232654675	0.57487686851960
5.9177350572444	0.57487376644359
5.9095694460871	0.57487063298553
5.9014263385827	0.57486746941482
5.8933056418321	0.57486427700255
5.8852072634472	0.57486105702117
5.8771311115468	0.57485781074406
5.8690770947533	0.57485453944517
5.8610451221896	0.57485124439865
5.8530351034752	0.57484792687844
5.8450469487229	0.57484458815796
5.8370805685358	0.57484122950964
5.8291358740035	0.57483785220465
5.8212127766990	0.57483445751247
5.8133111886756	0.57483104670051
5.8054310224632	0.57482762103379
5.7975721910656	0.57482418177457
5.7897346079567	0.57482073018195
5.7819181870781	0.57481726751154
5.7741228428351	0.57481379501512
5.7663484900942	0.57481031394025
5.7585950441798	0.57480682552993
5.7508624208709	0.57480333102227
5.7431505363985	0.57479983165011
5.7354593074421	0.57479632864073
5.7277886511272	0.57479282321544
5.7201384850219	0.57478931658930
5.7125087271341	0.57478580997076
5.7048992959087	0.57478230456133
5.6973101102242	0.57477880155525
5.6897410893908	0.57477530213920
5.6821921531463	0.57477180749190
5.6746632216544	0.57476831878386
5.6671542155009	0.57476483717707
5.6596650556919	0.57476136382461
5.6521956636501	0.57475789987044
5.6447459612126	0.57475444644902
5.6373158706281	0.57475100468505
5.6299053145540	0.57474757569316
5.6225142160540	0.57474416057761
5.6151424985952	0.57474076043200
5.6077900860456	0.57473737633902
5.6004569026714	0.57473400937010
5.5931428731343	0.57473066058520
5.5858479224893	0.57472733103248
5.5785719761816	0.57472402174808
5.5713149600446	0.57472073375582
5.5640768002970	0.57471746806693
5.5568574235403	0.57471422567984
5.5496567567568	0.57471100757987
5.5424747273063	0.57470781473903
5.5353112629247	0.57470464811573
5.5281662917204	0.57470150865457
5.5210397421731	0.57469839728612
5.5139315431304	0.57469531492662
5.5068416238060	0.57469226247783
5.4997699137773	0.57468924082677
5.4927163429828	0.57468625084550
5.4856808417200	0.57468329339092
5.4786633406433	0.57468036930457
5.4716637707611	0.57467747941237
5.4646820634342	0.57467462452452
5.4577181503732	0.57467180543520
5.4507719636364	0.57466902292247
5.4438434356274	0.57466627774803
5.4369324990932	0.57466357065704
5.4300390871219	0.57466090237800
5.4231631331404	0.57465827362250
5.4163045709124	0.57465568508514
5.4094633345363	0.57465313744329
5.4026393584430	0.57465063135701
5.3958325773938	0.57464816746884
5.3890429264785	0.57464574640370
5.3822703411131	0.57464336876871
5.3755147570378	0.57464103515308
5.3687761103152	0.57463874612801
5.3620543373278	0.57463650224650
5.3553493747767	0.57463430404328
5.3486611596789	0.57463215203469
5.3419896293656	0.57463004671855
5.3353347214807	0.57462798857409
5.3286963739780	0.57462597806182
5.3220745251198	0.57462401562348
5.3154691134752	0.57462210168189
5.3088800779175	0.57462023664093
5.3023073576229	0.57461842088543
5.2957508920685	0.57461665478113
5.2892106210303	0.57461493867457
5.2826864845815	0.57461327289305
5.2761784230905	0.57461165774459
5.2696863772192	0.57461009351789
5.2632102879213	0.57460858048222
5.2567500964405	0.57460711888746
5.2503057443082	0.57460570896404
5.2438771733427	0.57460435092287
5.2374643256464	0.57460304495540
5.2310671436050	0.57460179123352
5.2246855698850	0.57460058990961
5.2183195474326	0.57459944111650
5.2119690194715	0.57459834496748
5.2056339295016	0.57459730155630
5.1993142212973	0.57459631095720
5.1930098389052	0.57459537322489
5.1867207266436	0.57459448839460
5.1804468290997	0.57459365648211
5.1741880911288	0.57459287748373
5.1679444578521	0.57459215137642
5.1617158746556	0.57459147811776
5.1555022871883	0.57459085764603
5.1493036413604	0.57459028988027
5.1431198833419	0.57458977472030
5.1369509595613	0.57458931204684
5.1307968167037	0.57458890172153
5.1246574017094	0.57458854358701
5.1185326617722	0.57458823746705
5.1124225443383	0.57458798316655
5.1063269971044	0.57458778047171
5.1002459680163	0.57458762915007
5.0941794052676	0.57458752895064
5.0881272572980	0.57458747960398
5.0820894727920	0.57458748082234
5.0760660006773	0.57458753229975
5.0700567901235	0.57458763371216
5.0640617905405	0.57458778471753
5.0580809515775	0.57458798495602
5.0521142231210	0.57458823405005
5.0461615552937	0.57458853160451
5.0402228984533	0.57458887720687
5.0342982031906	0.57458927042731
5.0283874203287	0.57458971081892
5.0224905009214	0.57459019791783
5.0166073962517	0.57459073124340
5.0107380578305	0.57459131029833
5.0048824373957	0.57459193456891
4.9990404869101	0.57459260352514
4.9932121585610	0.57459331662095
4.9873974047579	0.57459407329435
4.9815961781323	0.57459487296767
4.9758084315353	0.57459571504771
4.9700341180371	0.57459659892595
4.9642731909256	0.57459752397878
4.9585256037049	0.57459848956769
4.9527913100942	0.57459949503950
4.9470702640264	0.57460053972652
4.9413624196473	0.57460162294688
4.9356677313138	0.57460274400463
4.9299861535932	0.57460390219007
4.9243176412615	0.57460509677994
4.9186621493027	0.57460632703765
4.9130196329072	0.57460759221356
4.9073900474709	0.57460889154518
4.9017733485939	0.57461022425746
4.8961694920790	0.57461158956301
4.8905784339315	0.57461298666238
4.8850001303569	0.57461441474432
4.8794345377604	0.57461587298603
4.8738816127459	0.57461736055343
4.8683413121143	0.57461887660147
4.8628135928629	0.57462042027432
4.8572984121841	0.57462199070575
4.8517957274640	0.57462358701933
4.8463054962819	0.57462520832877
4.8408276764088	0.57462685373816
4.8353622258065	0.57462852234231
