#Parameters = {thARC=0; nARC=1.25; thsub=1; p=1; nSub=5}
#"Wavelength / um"	"T (871) [Real Part]"
#---------------------------------------
14.989622900000	0.55555485941633
14.937342202292	0.55555491745021
14.885424925521	0.55555497175166
14.833867293419	0.55555502244744
14.782665581854	0.55555506966215
14.731816117936	0.55555511351820
14.681315279138	0.55555515413589
14.631159492435	0.55555519163335
14.581345233463	0.55555522612660
14.531869025691	0.55555525772951
14.482727439614	0.55555528655389
14.433917091960	0.55555531270943
14.385434644914	0.55555533630373
14.337276805356	0.55555535744235
14.289440324118	0.55555537622876
14.241921995249	0.55555539276442
14.194718655303	0.55555540714873
14.147827182633	0.55555541947910
14.101244496707	0.55555542985091
14.054967557431	0.55555543835757
14.008993364486	0.55555544509051
13.963318956684	0.55555545013920
13.917941411328	0.55555545359114
13.872857843591	0.55555545553192
13.828065405904	0.55555545604521
13.783561287356	0.55555545521277
13.739342713107	0.55555545311446
13.695406943810	0.55555544982828
13.651751275046	0.55555544543036
13.608373036768	0.55555543999501
13.565269592760	0.55555543359467
13.522438340099	0.55555542630000
13.479876708633	0.55555541817985
13.437582160466	0.55555540930130
13.395552189455	0.55555539972963
13.353784320713	0.55555538952842
13.312276110124	0.55555537875948
13.271025143869	0.55555536748291
13.230029037952	0.55555535575712
13.189285437747	0.55555534363883
13.148792017544	0.55555533118308
13.108546480105	0.55555531844329
13.068546556234	0.55555530547122
13.028790004346	0.55555529231701
12.989274610052	0.55555527902923
12.949998185745	0.55555526565483
12.910958570198	0.55555525223923
12.872153628167	0.55555523882627
12.833581250000	0.55555522545829
12.795239351259	0.55555521217609
12.757125872340	0.55555519901899
12.719238778108	0.55555518602483
12.681576057530	0.55555517322998
12.644135723323	0.55555516066939
12.606915811606	0.55555514837656
12.569914381551	0.55555513638359
12.533129515050	0.55555512472121
12.496559316382	0.55555511341875
12.460201911887	0.55555510250420
12.424055449648	0.55555509200423
12.388118099174	0.55555508194416
12.352388051092	0.55555507234804
12.316863516845	0.55555506323863
12.281542728390	0.55555505463742
12.246423937908	0.55555504656467
12.211505417515	0.55555503903940
12.176785458976	0.55555503207943
12.142262373431	0.55555502570139
12.107934491115	0.55555501992073
12.073800161095	0.55555501475176
12.039857751004	0.55555501020765
12.006105646776	0.55555500630044
11.972542252396	0.55555500304110
11.939165989646	0.55555500043949
11.905975297855	0.55555499850443
11.872968633663	0.55555499724367
11.840144470774	0.55555499666398
11.807501299724	0.55555499677107
11.775037627651	0.55555499756969
11.742751978065	0.55555499906363
11.710642890625	0.55555500125569
11.678708920919	0.55555500414778
11.646948640249	0.55555500774085
11.615360635413	0.55555501203498
11.583943508501	0.55555501702936
11.552695876686	0.55555502272232
11.521616372022	0.55555502911134
11.490703641242	0.55555503619308
11.459956345566	0.55555504396339
11.429373160503	0.55555505241733
11.398952775665	0.55555506154918
11.368693894577	0.55555507135246
11.338595234493	0.55555508181997
11.308655526217	0.55555509294378
11.278873513920	0.55555510471525
11.249247954972	0.55555511712507
11.219777619760	0.55555513016324
11.190461291527	0.55555514381913
11.161297766195	0.55555515808147
11.132285852209	0.55555517293837
11.103424370370	0.55555518837733
11.074712153676	0.55555520438530
11.046148047163	0.55555522094864
11.017730907755	0.55555523805315
10.989459604106	0.55555525568413
10.961333016453	0.55555527382634
10.933350036470	0.55555529246406
10.905509567115	0.55555531158106
10.877810522496	0.55555533116068
10.850251827723	0.55555535118579
10.822832418773	0.55555537163882
10.795551242348	0.55555539250180
10.768407255747	0.55555541375634
10.741399426729	0.55555543538370
10.714526733381	0.55555545736472
10.687788163993	0.55555547967992
10.661182716927	0.55555550230949
10.634709400497	0.55555552523326
10.608367232838	0.55555554843079
10.582155241793	0.55555557188132
10.556072464789	0.55555559556383
10.530117948718	0.55555561945703
10.504290749825	0.55555564353939
10.478589933590	0.55555566778914
10.453014574616	0.55555569218430
10.427563756522	0.55555571670267
10.402236571825	0.55555574132189
10.377032121841	0.55555576601939
10.351949516575	0.55555579077248
10.326987874612	0.55555581555827
10.302146323024	0.55555584035380
10.277423997257	0.55555586513594
10.252820041040	0.55555588988148
10.228333606278	0.55555591456711
10.203963852961	0.55555593916944
10.179709949066	0.55555596366503
10.155571070461	0.55555598803037
10.131546400811	0.55555601224190
10.107635131490	0.55555603627607
10.083836461487	0.55555606010929
10.060149597315	0.55555608371797
10.036573752929	0.55555610707853
10.013108149633	0.55555613016743
9.9897520159947	0.55555615296113
9.9665045877660	0.55555617543617
9.9433651077944	0.55555619756914
9.9203328259431	0.55555621933669
9.8974069990096	0.55555624071556
9.8745868906456	0.55555626168258
9.8518717712783	0.55555628221468
9.8292609180328	0.55555630228892
9.8067536146549	0.55555632188245
9.7843491514360	0.55555634097261
9.7620468251384	0.55555635953683
9.7398459389214	0.55555637755274
9.7177458022690	0.55555639499811
9.6957457309185	0.55555641185090
9.6738450467893	0.55555642808926
9.6520430779137	0.55555644369152
9.6303391583681	0.55555645863623
9.6087326282051	0.55555647290216
9.5872228333866	0.55555648646829
9.5658091257179	0.55555649931385
9.5444908627826	0.55555651141828
9.5232674078780	0.55555652276131
9.5021381299525	0.55555653332292
9.4811024035421	0.55555654308333
9.4601596087094	0.55555655202308
9.4393091309824	0.55555656012295
9.4185503612944	0.55555656736406
9.3978826959248	0.55555657372778
9.3773055364404	0.55555657919583
9.3568182896380	0.55555658375021
9.3364203674868	0.55555658737327
9.3161111870727	0.55555659004767
9.2958901705426	0.55555659175642
9.2757567450495	0.55555659248286
9.2557103426984	0.55555659221068
9.2357504004929	0.55555659092395
9.2158763602828	0.55555658860705
9.1960876687117	0.55555658524479
9.1763837771656	0.55555658082230
9.1567641417227	0.55555657532513
9.1372282231027	0.55555656873918
9.1177754866180	0.55555656105076
9.0984054021244	0.55555655224658
9.0791174439733	0.55555654231373
9.0599110909640	0.55555653123973
9.0407858262967	0.55555651901249
9.0217411375263	0.55555650562034
9.0027765165165	0.55555649105203
8.9838914593947	0.55555647529673
8.9650854665072	0.55555645834403
8.9463580423754	0.55555644018398
8.9277086956522	0.55555642080703
8.9091369390788	0.55555640020408
8.8906422894425	0.55555637836648
8.8722242675348	0.55555635528601
8.8538823981099	0.55555633095490
8.8356162098438	0.55555630536584
8.8174252352941	0.55555627851197
8.7993090108600	0.55555625038687
8.7812670767428	0.55555622098460
8.7632989769073	0.55555619029967
8.7454042590432	0.55555615832704
8.7275824745269	0.55555612506214
8.7098331783847	0.55555609050089
8.6921559292549	0.55555605463965
8.6745502893519	0.55555601747524
8.6570158244297	0.55555597900499
8.6395521037464	0.55555593922666
8.6221587000288	0.55555589813849
8.6048351894374	0.55555585573922
8.5875811515325	0.55555581202802
8.5703961692396	0.55555576700458
8.5532798288160	0.55555572066902
8.5362317198178	0.55555567302195
8.5192514350668	0.55555562406448
8.5023385706183	0.55555557379815
8.4854927257288	0.55555552222501
8.4687135028249	0.55555546934755
8.4520005074711	0.55555541516875
8.4353533483399	0.55555535969208
8.4187716371806	0.55555530292144
8.4022549887892	0.55555524486124
8.3858030209790	0.55555518551632
8.3694153545505	0.55555512489202
8.3530916132627	0.55555506299412
8.3368314238042	0.55555499982888
8.3206344157646	0.55555493540302
8.3045002216066	0.55555486972372
8.2884284766381	0.55555480279862
8.2724188189845	0.55555473463579
8.2564708895621	0.55555466524380
8.2405843320506	0.55555459463164
8.2247587928669	0.55555452280875
8.2089939211391	0.55555444978503
8.1932893686800	0.55555437557081
8.1776447899618	0.55555430017686
8.1620598420909	0.55555422361441
8.1465341847826	0.55555414589508
8.1310674803363	0.55555406703097
8.1156593936113	0.55555398703458
8.1003095920022	0.55555390591883
8.0850177454153	0.55555382369706
8.0697835262450	0.55555374038305
8.0546066093498	0.55555365599097
8.0394866720300	0.55555357053540
8.0244233940043	0.55555348403132
8.0094164573871	0.55555339649413
7.9944655466667	0.55555330793959
7.9795703486825	0.55555321838390
7.9647305526036	0.55555312784359
7.9499458499072	0.55555303633562
7.9352159343568	0.55555294387728
7.9205405019815	0.55555285048628
7.9059192510549	0.55555275618066
7.8913518820742	0.55555266097884
7.8768380977404	0.55555256489958
7.8623776029373	0.55555246796200
7.8479701047120	0.55555237018557
7.8336153122550	0.55555227159009
7.8193129368805	0.55555217219570
7.8050626920073	0.55555207202287
7.7908642931393	0.55555197109238
7.7767174578470	0.55555186942534
7.7626219057483	0.55555176704316
7.7485773584906	0.55555166396756
7.7345835397317	0.55555156022056
7.7206401751223	0.55555145582447
7.7067469922879	0.55555135080189
7.6929037208109	0.55555124517567
7.6791100922131	0.55555113896899
7.6653658399386	0.55555103220523
7.6516706993364	0.55555092490809
7.6380244076433	0.55555081710148
7.6244267039674	0.55555070880957
7.6108773292714	0.55555060005677
7.5973760263558	0.55555049086773
7.5839225398432	0.55555038126731
7.5705166161616	0.55555027128060
7.5571580035291	0.55555016093289
7.5438464519376	0.55555005024969
7.5305817131374	0.55554993925668
7.5173635406219	0.55554982797977
7.5041916896120	0.55554971644502
7.4910659170415	0.55554960467866
7.4779859815415	0.55554949270712
7.4649516434263	0.55554938055697
7.4519626646781	0.55554926825492
7.4390188089330	0.55554915582784
7.4261198414664	0.55554904330275
7.4132655291790	0.55554893070677
7.4004556405826	0.55554881806716
7.3876899457861	0.55554870541130
7.3749682164822	0.55554859276666
7.3622902259332	0.55554848016082
7.3496557489581	0.55554836762144
7.3370645619187	0.55554825517628
7.3245164427071	0.55554814285315
7.3120111707317	0.55554803067996
7.2995485269053	0.55554791868464
7.2871282936315	0.55554780689522
7.2747502547925	0.55554769533972
7.2624141957364	0.55554758404624
7.2501199032648	0.55554747304288
7.2378671656205	0.55554736235777
7.2256557724753	0.55554725201905
7.2134855149182	0.55554714205486
7.2013561854432	0.55554703249335
7.1892675779376	0.55554692336263
7.1772194876706	0.55554681469080
7.1652117112811	0.55554670650596
7.1532440467669	0.55554659883612
7.1413162934731	0.55554649170930
7.1294282520809	0.55554638515342
7.1175797245964	0.55554627919636
7.1057705143399	0.55554617386595
7.0940004259347	0.55554606918990
7.0822692652965	0.55554596519586
7.0705768396226	0.55554586191139
7.0589229573817	0.55554575936395
7.0473074283028	0.55554565758087
7.0357300633654	0.55554555658938
7.0241906747891	0.55554545641657
7.0126890760234	0.55554535708943
7.0012250817375	0.55554525863477
6.9897985078107	0.55554516107927
6.9784091713222	0.55554506444944
6.9670568905415	0.55554496877166
6.9557414849188	0.55554487407209
6.9444627750753	0.55554478037674
6.9332205827937	0.55554468771143
6.9220147310090	0.55554459610177
6.9108450437990	0.55554450557318
6.8997113463751	0.55554441615086
6.8886134650735	0.55554432785980
6.8775512273457	0.55554424072475
6.8665244617499	0.55554415477024
6.8555329979419	0.55554407002056
6.8445766666667	0.55554398649974
6.8336552997493	0.55554390423156
6.8227687300865	0.55554382323954
6.8119167916383	0.55554374354691
6.8010993194192	0.55554366517665
6.7903161494904	0.55554358815145
6.7795671189507	0.55554351249368
6.7688520659291	0.55554343822544
6.7581708295762	0.55554336536852
6.7475232500563	0.55554329394439
6.7369091685393	0.55554322397419
6.7263284271932	0.55554315547876
6.7157808691756	0.55554308847858
6.7052663386267	0.55554302299380
6.6947846806610	0.55554295904424
6.6843357413601	0.55554289664934
6.6739193677649	0.55554283582819
6.6635354078684	0.55554277659951
6.6531837106081	0.55554271898167
6.6428641258586	0.55554266299263
6.6325765044248	0.55554260864998
6.6223206980340	0.55554255597091
6.6120965593295	0.55554250497224
6.6019039418630	0.55554245567036
6.5917427000879	0.55554240808125
6.5816126893524	0.55554236222049
6.5715137658922	0.55554231810323
6.5614457868243	0.55554227574421
6.5514086101399	0.55554223515772
6.5414020946978	0.55554219635762
6.5314261002179	0.55554215935734
6.5214804872743	0.55554212416983
6.5115651172893	0.55554209080762
6.5016798525266	0.55554205928277
6.4918245560849	0.55554202960689
6.4819990918919	0.55554200179109
6.4722033246978	0.55554197584605
6.4624371200690	0.55554195178195
6.4527003443823	0.55554192960848
6.4429928648184	0.55554190933487
6.4333145493562	0.55554189096984
6.4236652667667	0.55554187452163
6.4140448866068	0.55554185999797
6.4044532792138	0.55554184740609
6.3948903156997	0.55554183675272
6.3853558679446	0.55554182804407
6.3758498085921	0.55554182128584
6.3663720110427	0.55554181648323
6.3569223494487	0.55554181364089
6.3475006987084	0.55554181276297
6.3381069344609	0.55554181385307
6.3287409330800	0.55554181691428
6.3194025716695	0.55554182194915
6.3100917280572	0.55554182895967
6.3008082807902	0.55554183794734
6.2915521091291	0.55554184891308
6.2823230930427	0.55554186185726
6.2731211132036	0.55554187677973
6.2639460509820	0.55554189367978
6.2547977884415	0.55554191255614
6.2456762083333	0.55554193340700
6.2365811940919	0.55554195622997
6.2275126298297	0.55554198102214
6.2184704003319	0.55554200778000
6.2094543910522	0.55554203649951
6.2004644881075	0.55554206717605
6.1915005782734	0.55554209980444
6.1825625489792	0.55554213437895
6.1736502883031	0.55554217089325
6.1647636849681	0.55554220934047
6.1559026283368	0.55554224971317
6.1470670084068	0.55554229200332
6.1382567158067	0.55554233620236
6.1294716417910	0.55554238230111
6.1207116782360	0.55554243028986
6.1119767176351	0.55554248015831
6.1032666530945	0.55554253189560
6.0945813783289	0.55554258549028
6.0859207876573	0.55554264093035
6.0772847759984	0.55554269820324
6.0686732388664	0.55554275729578
6.0600860723671	0.55554281819427
6.0515231731934	0.55554288088441
6.0429844386212	0.55554294535135
6.0344697665056	0.55554301157968
6.0259790552764	0.55554307955340
6.0175122039342	0.55554314925595
6.0090691120465	0.55554322067023
6.0006496797438	0.55554329377855
5.9922538077154	0.55554336856267
5.9838813972056	0.55554344500380
5.9755323500100	0.55554352308258
5.9672065684713	0.55554360277909
5.9589039554760	0.55554368407288
5.9506244144502	0.55554376694293
5.9423678493558	0.55554385136768
5.9341341646873	0.55554393732502
5.9259232654675	0.55554402479229
5.9177350572444	0.55554411374630
5.9095694460871	0.55554420416332
5.9014263385827	0.55554429601909
5.8933056418321	0.55554438928880
5.8852072634472	0.55554448394713
5.8771311115468	0.55554457996824
5.8690770947533	0.55554467732573
5.8610451221896	0.55554477599274
5.8530351034752	0.55554487594184
5.8450469487229	0.55554497714512
5.8370805685358	0.55554507957417
5.8291358740035	0.55554518320005
5.8212127766990	0.55554528799335
5.8133111886756	0.55554539392415
5.8054310224632	0.55554550096204
5.7975721910656	0.55554560907614
5.7897346079567	0.55554571823507
5.7819181870781	0.55554582840700
5.7741228428351	0.55554593955961
5.7663484900942	0.55554605166012
5.7585950441798	0.55554616467529
5.7508624208709	0.55554627857144
5.7431505363985	0.55554639331442
5.7354593074421	0.55554650886965
5.7277886511272	0.55554662520211
5.7201384850219	0.55554674227634
5.7125087271341	0.55554686005648
5.7048992959087	0.55554697850623
5.6973101102242	0.55554709758887
5.6897410893908	0.55554721726730
5.6821921531463	0.55554733750398
5.6746632216544	0.55554745826102
5.6671542155009	0.55554757950012
5.6596650556919	0.55554770118260
5.6521956636501	0.55554782326940
5.6447459612126	0.55554794572111
5.6373158706281	0.55554806849795
5.6299053145540	0.55554819155979
5.6225142160540	0.55554831486615
5.6151424985952	0.55554843837623
5.6077900860456	0.55554856204888
5.6004569026714	0.55554868584263
5.5931428731343	0.55554880971570
5.5858479224893	0.55554893362601
5.5785719761816	0.55554905753117
5.5713149600446	0.55554918138850
5.5640768002970	0.55554930515505
5.5568574235403	0.55554942878757
5.5496567567568	0.55554955224256
5.5424747273063	0.55554967547628
5.5353112629247	0.55554979844469
5.5281662917204	0.55554992110357
5.5210397421731	0.55555004340841
5.5139315431304	0.55555016531452
5.5068416238060	0.55555028677698
5.4997699137773	0.55555040775066
5.4927163429828	0.55555052819023
5.4856808417200	0.55555064805018
5.4786633406433	0.55555076728483
5.4716637707611	0.55555088584831
5.4646820634342	0.55555100369461
5.4577181503732	0.55555112077755
5.4507719636364	0.55555123705083
5.4438434356274	0.55555135246800
5.4369324990932	0.55555146698249
5.4300390871219	0.55555158054764
5.4231631331404	0.55555169311667
5.4163045709124	0.55555180464269
5.4094633345363	0.55555191507877
5.4026393584430	0.55555202437786
5.3958325773938	0.55555213249289
5.3890429264785	0.55555223937671
5.3822703411131	0.55555234498214
5.3755147570378	0.55555244926196
5.3687761103152	0.55555255216893
5.3620543373278	0.55555265365581
5.3553493747767	0.55555275367535
5.3486611596789	0.55555285218029
5.3419896293656	0.55555294912343
5.3353347214807	0.55555304445757
5.3286963739780	0.55555313813555
5.3220745251198	0.55555323011029
5.3154691134752	0.55555332033475
5.3088800779175	0.55555340876195
5.3023073576229	0.55555349534502
5.2957508920685	0.55555358003718
5.2892106210303	0.55555366279174
5.2826864845815	0.55555374356215
5.2761784230905	0.55555382230195
5.2696863772192	0.55555389896485
5.2632102879213	0.55555397350471
5.2567500964405	0.55555404587552
5.2503057443082	0.55555411603148
5.2438771733427	0.55555418392693
5.2374643256464	0.55555424951643
5.2310671436050	0.55555431275474
5.2246855698850	0.55555437359684
5.2183195474326	0.55555443199791
5.2119690194715	0.55555448791340
5.2056339295016	0.55555454129899
5.1993142212973	0.55555459211061
5.1930098389052	0.55555464030449
5.1867207266436	0.55555468583711
5.1804468290997	0.55555472866526
5.1741880911288	0.55555476874603
5.1679444578521	0.55555480603683
5.1617158746556	0.55555484049537
5.1555022871883	0.55555487207974
5.1493036413604	0.55555490074835
5.1431198833419	0.55555492645996
5.1369509595613	0.55555494917372
5.1307968167037	0.55555496884915
5.1246574017094	0.55555498544618
5.1185326617722	0.55555499892511
5.1124225443383	0.55555500924669
5.1063269971044	0.55555501637208
5.1002459680163	0.55555502026285
5.0941794052676	0.55555502088107
5.0881272572980	0.55555501818922
5.0820894727920	0.55555501215027
5.0760660006773	0.55555500272767
5.0700567901235	0.55555498988535
5.0640617905405	0.55555497358775
5.0580809515775	0.55555495379983
5.0521142231210	0.55555493048704
5.0461615552937	0.55555490361539
5.0402228984533	0.55555487315144
5.0342982031906	0.55555483906226
5.0283874203287	0.55555480131555
5.0224905009214	0.55555475987951
5.0166073962517	0.55555471472299
5.0107380578305	0.55555466581540
5.0048824373957	0.55555461312676
4.9990404869101	0.55555455662771
4.9932121585610	0.55555449628952
4.9873974047579	0.55555443208407
4.9815961781323	0.55555436398392
4.9758084315353	0.55555429196227
4.9700341180371	0.55555421599297
4.9642731909256	0.55555413605057
4.9585256037049	0.55555405211030
4.9527913100942	0.55555396414805
4.9470702640264	0.55555387214047
4.9413624196473	0.55555377606487
4.9356677313138	0.55555367589931
4.9299861535932	0.55555357162258
4.9243176412615	0.55555346321420
4.9186621493027	0.55555335065444
4.9130196329072	0.55555323392435
4.9073900474709	0.55555311300570
4.9017733485939	0.55555298788109
4.8961694920790	0.55555285853387
4.8905784339315	0.55555272494818
4.8850001303569	0.55555258710899
4.8794345377604	0.55555244500204
4.8738816127459	0.55555229861392
4.8683413121143	0.55555214793203
4.8628135928629	0.55555199294461
4.8572984121841	0.55555183364073
4.8517957274640	0.55555167001032
4.8463054962819	0.55555150204416
4.8408276764088	0.55555132973390
4.8353622258065	0.55555115307205
