#Parameters = {thARC=0; nARC=2.25; thsub=1; p=1; nSub=5}
#"Wavelength / um"	"T (895) [Real Part]"
#---------------------------------------
14.989622900000	0.55555485942697
14.937342202292	0.55555491746089
14.885424925521	0.55555497176237
14.833867293419	0.55555502245817
14.782665581854	0.55555506967291
14.731816117936	0.55555511352899
14.681315279138	0.55555515414671
14.631159492435	0.55555519164419
14.581345233463	0.55555522613746
14.531869025691	0.55555525774041
14.482727439614	0.55555528656481
14.433917091960	0.55555531272037
14.385434644914	0.55555533631470
14.337276805356	0.55555535745334
14.289440324118	0.55555537623978
14.241921995249	0.55555539277546
14.194718655303	0.55555540715979
14.147827182633	0.55555541949019
14.101244496707	0.55555542986202
14.054967557431	0.55555543836871
14.008993364486	0.55555544510167
13.963318956684	0.55555545015038
13.917941411328	0.55555545360234
13.872857843591	0.55555545554315
13.828065405904	0.55555545605646
13.783561287356	0.55555545522404
13.739342713107	0.55555545312575
13.695406943810	0.55555544983959
13.651751275046	0.55555544544170
13.608373036768	0.55555544000636
13.565269592760	0.55555543360605
13.522438340099	0.55555542631140
13.479876708633	0.55555541819128
13.437582160466	0.55555540931274
13.395552189455	0.55555539974110
13.353784320713	0.55555538953991
13.312276110124	0.55555537877098
13.271025143869	0.55555536749444
13.230029037952	0.55555535576867
13.189285437747	0.55555534365039
13.148792017544	0.55555533119467
13.108546480105	0.55555531845490
13.068546556234	0.55555530548284
13.028790004346	0.55555529232866
12.989274610052	0.55555527904089
12.949998185745	0.55555526566652
12.910958570198	0.55555525225093
12.872153628167	0.55555523883800
12.833581250000	0.55555522547003
12.795239351259	0.55555521218785
12.757125872340	0.55555519903078
12.719238778108	0.55555518603663
12.681576057530	0.55555517324181
12.644135723323	0.55555516068124
12.606915811606	0.55555514838842
12.569914381551	0.55555513639548
12.533129515050	0.55555512473311
12.496559316382	0.55555511343067
12.460201911887	0.55555510251614
12.424055449648	0.55555509201619
12.388118099174	0.55555508195614
12.352388051092	0.55555507236004
12.316863516845	0.55555506325065
12.281542728390	0.55555505464946
12.246423937908	0.55555504657673
12.211505417515	0.55555503905148
12.176785458976	0.55555503209153
12.142262373431	0.55555502571351
12.107934491115	0.55555501993287
12.073800161095	0.55555501476392
12.039857751004	0.55555501021983
12.006105646776	0.55555500631264
11.972542252396	0.55555500305332
11.939165989646	0.55555500045173
11.905975297855	0.55555499851668
11.872968633663	0.55555499725595
11.840144470774	0.55555499667627
11.807501299724	0.55555499678338
11.775037627651	0.55555499758203
11.742751978065	0.55555499907598
11.710642890625	0.55555500126807
11.678708920919	0.55555500416017
11.646948640249	0.55555500775326
11.615360635413	0.55555501204741
11.583943508501	0.55555501704181
11.552695876686	0.55555502273479
11.521616372022	0.55555502912383
11.490703641242	0.55555503620559
11.459956345566	0.55555504397593
11.429373160503	0.55555505242988
11.398952775665	0.55555506156175
11.368693894577	0.55555507136505
11.338595234493	0.55555508183259
11.308655526217	0.55555509295642
11.278873513920	0.55555510472791
11.249247954972	0.55555511713774
11.219777619760	0.55555513017594
11.190461291527	0.55555514383185
11.161297766195	0.55555515809421
11.132285852209	0.55555517295113
11.103424370370	0.55555518839011
11.074712153676	0.55555520439810
11.046148047163	0.55555522096146
11.017730907755	0.55555523806599
10.989459604106	0.55555525569699
10.961333016453	0.55555527383923
10.933350036470	0.55555529247696
10.905509567115	0.55555531159399
10.877810522496	0.55555533117363
10.850251827723	0.55555535119876
10.822832418773	0.55555537165181
10.795551242348	0.55555539251481
10.768407255747	0.55555541376938
10.741399426729	0.55555543539676
10.714526733381	0.55555545737780
10.687788163993	0.55555547969303
10.661182716927	0.55555550232261
10.634709400497	0.55555552524641
10.608367232838	0.55555554844395
10.582155241793	0.55555557189451
10.556072464789	0.55555559557704
10.530117948718	0.55555561947026
10.504290749825	0.55555564355265
10.478589933590	0.55555566780242
10.453014574616	0.55555569219760
10.427563756522	0.55555571671600
10.402236571825	0.55555574133523
10.377032121841	0.55555576603276
10.351949516575	0.55555579078587
10.326987874612	0.55555581557169
10.302146323024	0.55555584036724
10.277423997257	0.55555586514940
10.252820041040	0.55555588989496
10.228333606278	0.55555591458061
10.203963852961	0.55555593918297
10.179709949066	0.55555596367858
10.155571070461	0.55555598804394
10.131546400811	0.55555601225550
10.107635131490	0.55555603628969
10.083836461487	0.55555606012293
10.060149597315	0.55555608373163
10.036573752929	0.55555610709222
10.013108149633	0.55555613018114
9.9897520159947	0.55555615297486
9.9665045877660	0.55555617544993
9.9433651077944	0.55555619758292
9.9203328259431	0.55555621935050
9.8974069990096	0.55555624072939
9.8745868906456	0.55555626169643
9.8518717712783	0.55555628222856
9.8292609180328	0.55555630230281
9.8067536146549	0.55555632189637
9.7843491514360	0.55555634098655
9.7620468251384	0.55555635955079
9.7398459389214	0.55555637756672
9.7177458022690	0.55555639501212
9.6957457309185	0.55555641186493
9.6738450467893	0.55555642810331
9.6520430779137	0.55555644370560
9.6303391583681	0.55555645865034
9.6087326282051	0.55555647291629
9.5872228333866	0.55555648648245
9.5658091257179	0.55555649932802
9.5444908627826	0.55555651143248
9.5232674078780	0.55555652277553
9.5021381299525	0.55555653333716
9.4811024035421	0.55555654309760
9.4601596087094	0.55555655203737
9.4393091309824	0.55555656013727
9.4185503612944	0.55555656737840
9.3978826959248	0.55555657374214
9.3773055364404	0.55555657921021
9.3568182896380	0.55555658376462
9.3364203674868	0.55555658738770
9.3161111870727	0.55555659006213
9.2958901705426	0.55555659177090
9.2757567450495	0.55555659249736
9.2557103426984	0.55555659222521
9.2357504004929	0.55555659093849
9.2158763602828	0.55555658862162
9.1960876687117	0.55555658525938
9.1763837771656	0.55555658083692
9.1567641417227	0.55555657533977
9.1372282231027	0.55555656875384
9.1177754866180	0.55555656106545
9.0984054021244	0.55555655226129
9.0791174439733	0.55555654232847
9.0599110909640	0.55555653125449
9.0407858262967	0.55555651902727
9.0217411375263	0.55555650563514
9.0027765165165	0.55555649106685
8.9838914593947	0.55555647531157
8.9650854665072	0.55555645835890
8.9463580423754	0.55555644019887
8.9277086956522	0.55555642082195
8.9091369390788	0.55555640021902
8.8906422894425	0.55555637838144
8.8722242675348	0.55555635530099
8.8538823981099	0.55555633096991
8.8356162098438	0.55555630538087
8.8174252352941	0.55555627852702
8.7993090108600	0.55555625040195
8.7812670767428	0.55555622099970
8.7632989769073	0.55555619031478
8.7454042590432	0.55555615834217
8.7275824745269	0.55555612507730
8.7098331783847	0.55555609051607
8.6921559292549	0.55555605465485
8.6745502893519	0.55555601749047
8.6570158244297	0.55555597902024
8.6395521037464	0.55555593924192
8.6221587000288	0.55555589815378
8.6048351894374	0.55555585575453
8.5875811515325	0.55555581204336
8.5703961692396	0.55555576701993
8.5532798288160	0.55555572068439
8.5362317198178	0.55555567303735
8.5192514350668	0.55555562407990
8.5023385706183	0.55555557381359
8.4854927257288	0.55555552224047
8.4687135028249	0.55555546936303
8.4520005074711	0.55555541518426
8.4353533483399	0.55555535970760
8.4187716371806	0.55555530293699
8.4022549887892	0.55555524487680
8.3858030209790	0.55555518553190
8.3694153545505	0.55555512490762
8.3530916132627	0.55555506300974
8.3368314238042	0.55555499984453
8.3206344157646	0.55555493541869
8.3045002216066	0.55555486973941
8.2884284766381	0.55555480281432
8.2724188189845	0.55555473465152
8.2564708895621	0.55555466525955
8.2405843320506	0.55555459464741
8.2247587928669	0.55555452282454
8.2089939211391	0.55555444980083
8.1932893686800	0.55555437558663
8.1776447899618	0.55555430019271
8.1620598420909	0.55555422363027
8.1465341847826	0.55555414591097
8.1310674803363	0.55555406704688
8.1156593936113	0.55555398705050
8.1003095920022	0.55555390593477
8.0850177454153	0.55555382371303
8.0697835262450	0.55555374039903
8.0546066093498	0.55555365600697
8.0394866720300	0.55555357055141
8.0244233940043	0.55555348404736
8.0094164573871	0.55555339651018
7.9944655466667	0.55555330795567
7.9795703486825	0.55555321839999
7.9647305526036	0.55555312785970
7.9499458499072	0.55555303635174
7.9352159343568	0.55555294389343
7.9205405019815	0.55555285050245
7.9059192510549	0.55555275619684
7.8913518820742	0.55555266099504
7.8768380977404	0.55555256491579
7.8623776029373	0.55555246797823
7.8479701047120	0.55555237020182
7.8336153122550	0.55555227160636
7.8193129368805	0.55555217221199
7.8050626920073	0.55555207203917
7.7908642931393	0.55555197110870
7.7767174578470	0.55555186944168
7.7626219057483	0.55555176705951
7.7485773584906	0.55555166398393
7.7345835397317	0.55555156023695
7.7206401751223	0.55555145584088
7.7067469922879	0.55555135081831
7.6929037208109	0.55555124519211
7.6791100922131	0.55555113898544
7.6653658399386	0.55555103222170
7.6516706993364	0.55555092492458
7.6380244076433	0.55555081711798
7.6244267039674	0.55555070882609
7.6108773292714	0.55555060007330
7.5973760263558	0.55555049088428
7.5839225398432	0.55555038128387
7.5705166161616	0.55555027129718
7.5571580035291	0.55555016094948
7.5438464519376	0.55555005026630
7.5305817131374	0.55554993927331
7.5173635406219	0.55554982799641
7.5041916896120	0.55554971646167
7.4910659170415	0.55554960469533
7.4779859815415	0.55554949272381
7.4649516434263	0.55554938057367
7.4519626646781	0.55554926827163
7.4390188089330	0.55554915584457
7.4261198414664	0.55554904331949
7.4132655291790	0.55554893072353
7.4004556405826	0.55554881808394
7.3876899457861	0.55554870542809
7.3749682164822	0.55554859278346
7.3622902259332	0.55554848017764
7.3496557489581	0.55554836763827
7.3370645619187	0.55554825519312
7.3245164427071	0.55554814287001
7.3120111707317	0.55554803069683
7.2995485269053	0.55554791870153
7.2871282936315	0.55554780691212
7.2747502547925	0.55554769535664
7.2624141957364	0.55554758406317
7.2501199032648	0.55554747305982
7.2378671656205	0.55554736237473
7.2256557724753	0.55554725203602
7.2134855149182	0.55554714207184
7.2013561854432	0.55554703251034
7.1892675779376	0.55554692337963
7.1772194876706	0.55554681470782
7.1652117112811	0.55554670652299
7.1532440467669	0.55554659885317
7.1413162934731	0.55554649172635
7.1294282520809	0.55554638517049
7.1175797245964	0.55554627921345
7.1057705143399	0.55554617388304
7.0940004259347	0.55554606920700
7.0822692652965	0.55554596521298
7.0705768396226	0.55554586192853
7.0589229573817	0.55554575938109
7.0473074283028	0.55554565759802
7.0357300633654	0.55554555660654
7.0241906747891	0.55554545643375
7.0126890760234	0.55554535710662
7.0012250817375	0.55554525865197
6.9897985078107	0.55554516109648
6.9784091713222	0.55554506446667
6.9670568905415	0.55554496878890
6.9557414849188	0.55554487408934
6.9444627750753	0.55554478039401
6.9332205827937	0.55554468772871
6.9220147310090	0.55554459611906
6.9108450437990	0.55554450559048
6.8997113463751	0.55554441616817
6.8886134650735	0.55554432787712
6.8775512273457	0.55554424074208
6.8665244617499	0.55554415478759
6.8555329979419	0.55554407003792
6.8445766666667	0.55554398651711
6.8336552997493	0.55554390424894
6.8227687300865	0.55554382325693
6.8119167916383	0.55554374356431
6.8010993194192	0.55554366519407
6.7903161494904	0.55554358816887
6.7795671189507	0.55554351251112
6.7688520659291	0.55554343824289
6.7581708295762	0.55554336538598
6.7475232500563	0.55554329396185
6.7369091685393	0.55554322399167
6.7263284271932	0.55554315549625
6.7157808691756	0.55554308849608
6.7052663386267	0.55554302301132
6.6947846806610	0.55554295906177
6.6843357413601	0.55554289666687
6.6739193677649	0.55554283584573
6.6635354078684	0.55554277661707
6.6531837106081	0.55554271899924
6.6428641258586	0.55554266301021
6.6325765044248	0.55554260866757
6.6223206980340	0.55554255598851
6.6120965593295	0.55554250498985
6.6019039418630	0.55554245568798
6.5917427000879	0.55554240809888
6.5816126893524	0.55554236223813
6.5715137658922	0.55554231812089
6.5614457868243	0.55554227576188
6.5514086101399	0.55554223517540
6.5414020946978	0.55554219637531
6.5314261002179	0.55554215937503
6.5214804872743	0.55554212418753
6.5115651172893	0.55554209082534
6.5016798525266	0.55554205930050
6.4918245560849	0.55554202962462
6.4819990918919	0.55554200180884
6.4722033246978	0.55554197586381
6.4624371200690	0.55554195179972
6.4527003443823	0.55554192962626
6.4429928648184	0.55554190935266
6.4333145493562	0.55554189098764
6.4236652667667	0.55554187453944
6.4140448866068	0.55554186001579
6.4044532792138	0.55554184742392
6.3948903156997	0.55554183677056
6.3853558679446	0.55554182806192
6.3758498085921	0.55554182130371
6.3663720110427	0.55554181650111
6.3569223494487	0.55554181365878
6.3475006987084	0.55554181278087
6.3381069344609	0.55554181387098
6.3287409330800	0.55554181693220
6.3194025716695	0.55554182196707
6.3100917280572	0.55554182897761
6.3008082807902	0.55554183796529
6.2915521091291	0.55554184893104
6.2823230930427	0.55554186187523
6.2731211132036	0.55554187679771
6.2639460509820	0.55554189369777
6.2547977884415	0.55554191257415
6.2456762083333	0.55554193342501
6.2365811940919	0.55554195624800
6.2275126298297	0.55554198104017
6.2184704003319	0.55554200779805
6.2094543910522	0.55554203651757
6.2004644881075	0.55554206719412
6.1915005782734	0.55554209982252
6.1825625489792	0.55554213439704
6.1736502883031	0.55554217091135
6.1647636849681	0.55554220935858
6.1559026283368	0.55554224973129
6.1470670084068	0.55554229202146
6.1382567158067	0.55554233622050
6.1294716417910	0.55554238231927
6.1207116782360	0.55554243030803
6.1119767176351	0.55554248017649
6.1032666530945	0.55554253191379
6.0945813783289	0.55554258550848
6.0859207876573	0.55554264094856
6.0772847759984	0.55554269822146
6.0686732388664	0.55554275731401
6.0600860723671	0.55554281821251
6.0515231731934	0.55554288090266
6.0429844386212	0.55554294536962
6.0344697665056	0.55554301159796
6.0259790552764	0.55554307957168
6.0175122039342	0.55554314927425
6.0090691120465	0.55554322068854
6.0006496797438	0.55554329379687
5.9922538077154	0.55554336858101
5.9838813972056	0.55554344502215
5.9755323500100	0.55554352310093
5.9672065684713	0.55554360279746
5.9589039554760	0.55554368409126
5.9506244144502	0.55554376696133
5.9423678493558	0.55554385138608
5.9341341646873	0.55554393734343
5.9259232654675	0.55554402481071
5.9177350572444	0.55554411376474
5.9095694460871	0.55554420418177
5.9014263385827	0.55554429603755
5.8933056418321	0.55554438930727
5.8852072634472	0.55554448396562
5.8771311115468	0.55554457998673
5.8690770947533	0.55554467734424
5.8610451221896	0.55554477601126
5.8530351034752	0.55554487596037
5.8450469487229	0.55554497716367
5.8370805685358	0.55554507959272
5.8291358740035	0.55554518321862
5.8212127766990	0.55554528801193
5.8133111886756	0.55554539394274
5.8054310224632	0.55554550098064
5.7975721910656	0.55554560909475
5.7897346079567	0.55554571825370
5.7819181870781	0.55554582842564
5.7741228428351	0.55554593957826
5.7663484900942	0.55554605167878
5.7585950441798	0.55554616469397
5.7508624208709	0.55554627859012
5.7431505363985	0.55554639333312
5.7354593074421	0.55554650888836
5.7277886511272	0.55554662522083
5.7201384850219	0.55554674229508
5.7125087271341	0.55554686007523
5.7048992959087	0.55554697852499
5.6973101102242	0.55554709760765
5.6897410893908	0.55554721728608
5.6821921531463	0.55554733752278
5.6746632216544	0.55554745827984
5.6671542155009	0.55554757951894
5.6596650556919	0.55554770120143
5.6521956636501	0.55554782328825
5.6447459612126	0.55554794573997
5.6373158706281	0.55554806851682
5.6299053145540	0.55554819157867
5.6225142160540	0.55554831488505
5.6151424985952	0.55554843839514
5.6077900860456	0.55554856206780
5.6004569026714	0.55554868586156
5.5931428731343	0.55554880973465
5.5858479224893	0.55554893364497
5.5785719761816	0.55554905755014
5.5713149600446	0.55554918140749
5.5640768002970	0.55554930517404
5.5568574235403	0.55554942880658
5.5496567567568	0.55554955226159
5.5424747273063	0.55554967549531
5.5353112629247	0.55554979846374
5.5281662917204	0.55554992112262
5.5210397421731	0.55555004342748
5.5139315431304	0.55555016533361
5.5068416238060	0.55555028679608
5.4997699137773	0.55555040776976
5.4927163429828	0.55555052820935
5.4856808417200	0.55555064806931
5.4786633406433	0.55555076730397
5.4716637707611	0.55555088586747
5.4646820634342	0.55555100371378
5.4577181503732	0.55555112079673
5.4507719636364	0.55555123707002
5.4438434356274	0.55555135248720
5.4369324990932	0.55555146700171
5.4300390871219	0.55555158056688
5.4231631331404	0.55555169313591
5.4163045709124	0.55555180466195
5.4094633345363	0.55555191509803
5.4026393584430	0.55555202439714
5.3958325773938	0.55555213251218
5.3890429264785	0.55555223939602
5.3822703411131	0.55555234500146
5.3755147570378	0.55555244928129
5.3687761103152	0.55555255218828
5.3620543373278	0.55555265367517
5.3553493747767	0.55555275369471
5.3486611596789	0.55555285219967
5.3419896293656	0.55555294914282
5.3353347214807	0.55555304447697
5.3286963739780	0.55555313815497
5.3220745251198	0.55555323012972
5.3154691134752	0.55555332035418
5.3088800779175	0.55555340878140
5.3023073576229	0.55555349536448
5.2957508920685	0.55555358005665
5.2892106210303	0.55555366281123
5.2826864845815	0.55555374358164
5.2761784230905	0.55555382232146
5.2696863772192	0.55555389898437
5.2632102879213	0.55555397352424
5.2567500964405	0.55555404589507
5.2503057443082	0.55555411605103
5.2438771733427	0.55555418394649
5.2374643256464	0.55555424953601
5.2310671436050	0.55555431277433
5.2246855698850	0.55555437361644
5.2183195474326	0.55555443201752
5.2119690194715	0.55555448793302
5.2056339295016	0.55555454131862
5.1993142212973	0.55555459213026
5.1930098389052	0.55555464032414
5.1867207266436	0.55555468585677
5.1804468290997	0.55555472868494
5.1741880911288	0.55555476876572
5.1679444578521	0.55555480605652
5.1617158746556	0.55555484051508
5.1555022871883	0.55555487209946
5.1493036413604	0.55555490076807
5.1431198833419	0.55555492647969
5.1369509595613	0.55555494919346
5.1307968167037	0.55555496886891
5.1246574017094	0.55555498546594
5.1185326617722	0.55555499894489
5.1124225443383	0.55555500926648
5.1063269971044	0.55555501639187
5.1002459680163	0.55555502028266
5.0941794052676	0.55555502090088
5.0881272572980	0.55555501820904
5.0820894727920	0.55555501217010
5.0760660006773	0.55555500274751
5.0700567901235	0.55555498990520
5.0640617905405	0.55555497360762
5.0580809515775	0.55555495381970
5.0521142231210	0.55555493050692
5.0461615552937	0.55555490363528
5.0402228984533	0.55555487317134
5.0342982031906	0.55555483908217
5.0283874203287	0.55555480133546
5.0224905009214	0.55555475989944
5.0166073962517	0.55555471474293
5.0107380578305	0.55555466583535
5.0048824373957	0.55555461314671
4.9990404869101	0.55555455664767
4.9932121585610	0.55555449630948
4.9873974047579	0.55555443210405
4.9815961781323	0.55555436400391
4.9758084315353	0.55555429198226
4.9700341180371	0.55555421601297
4.9642731909256	0.55555413607058
4.9585256037049	0.55555405213031
4.9527913100942	0.55555396416807
4.9470702640264	0.55555387216049
4.9413624196473	0.55555377608490
4.9356677313138	0.55555367591935
4.9299861535932	0.55555357164262
4.9243176412615	0.55555346323425
4.9186621493027	0.55555335067450
4.9130196329072	0.55555323394441
4.9073900474709	0.55555311302578
4.9017733485939	0.55555298790117
4.8961694920790	0.55555285855395
4.8905784339315	0.55555272496827
4.8850001303569	0.55555258712908
4.8794345377604	0.55555244502214
4.8738816127459	0.55555229863403
4.8683413121143	0.55555214795214
4.8628135928629	0.55555199296473
4.8572984121841	0.55555183366085
4.8517957274640	0.55555167003045
4.8463054962819	0.55555150206429
4.8408276764088	0.55555132975404
4.8353622258065	0.55555115309219
