#Parameters = {thARC=0.2; nARC=1.25; thsub=1; p=1; nSub=1}
#"Wavelength / um"	"T (9) [Real Part]"
#-------------------------------------
14.989622900000	0.99944642552972
14.937342202292	0.99944828263556
14.885424925521	0.99945002021294
14.833867293419	0.99945163927470
14.782665581854	0.99945314082871
14.731816117936	0.99945452587778
14.681315279138	0.99945579541972
14.631159492435	0.99945695044732
14.581345233463	0.99945799194836
14.531869025691	0.99945892090562
14.482727439614	0.99945973829687
14.433917091960	0.99946044509489
14.385434644914	0.99946104226745
14.337276805356	0.99946153077734
14.289440324118	0.99946191158235
14.241921995249	0.99946218563532
14.194718655303	0.99946235388407
14.147827182633	0.99946241727147
14.101244496707	0.99946237673543
14.054967557431	0.99946223320887
14.008993364486	0.99946198761977
13.963318956684	0.99946164089116
13.917941411328	0.99946119394111
13.872857843591	0.99946064768273
13.828065405904	0.99946000302424
13.783561287356	0.99945926086888
13.739342713107	0.99945842211498
13.695406943810	0.99945748765595
13.651751275046	0.99945645838029
13.608373036768	0.99945533517157
13.565269592760	0.99945411890847
13.522438340099	0.99945281046478
13.479876708633	0.99945141070938
13.437582160466	0.99944992050628
13.395552189455	0.99944834071458
13.353784320713	0.99944667218855
13.312276110124	0.99944491577756
13.271025143869	0.99944307232613
13.230029037952	0.99944114267394
13.189285437747	0.99943912765581
13.148792017544	0.99943702810171
13.108546480105	0.99943484483680
13.068546556234	0.99943257868140
13.028790004346	0.99943023045102
12.989274610052	0.99942780095634
12.949998185745	0.99942529100327
12.910958570198	0.99942270139289
12.872153628167	0.99942003292152
12.833581250000	0.99941728638067
12.795239351259	0.99941446255709
12.757125872340	0.99941156223277
12.719238778108	0.99940858618495
12.681576057530	0.99940553518609
12.644135723323	0.99940241000393
12.606915811606	0.99939921140148
12.569914381551	0.99939594013702
12.533129515050	0.99939259696410
12.496559316382	0.99938918263157
12.460201911887	0.99938569788360
12.424055449648	0.99938214345964
12.388118099174	0.99937852009448
12.352388051092	0.99937482851820
12.316863516845	0.99937106945627
12.281542728390	0.99936724362945
12.246423937908	0.99936335175389
12.211505417515	0.99935939454109
12.176785458976	0.99935537269791
12.142262373431	0.99935128692660
12.107934491115	0.99934713792482
12.073800161095	0.99934292638558
12.039857751004	0.99933865299735
12.006105646776	0.99933431844399
11.972542252396	0.99932992340479
11.939165989646	0.99932546855449
11.905975297855	0.99932095456325
11.872968633663	0.99931638209673
11.840144470774	0.99931175181601
11.807501299724	0.99930706437769
11.775037627651	0.99930232043383
11.742751978065	0.99929752063198
11.710642890625	0.99929266561523
11.678708920919	0.99928775602217
11.646948640249	0.99928279248691
11.615360635413	0.99927777563910
11.583943508501	0.99927270610396
11.552695876686	0.99926758450225
11.521616372022	0.99926241145030
11.490703641242	0.99925718756004
11.459956345566	0.99925191343897
11.429373160503	0.99924658969020
11.398952775665	0.99924121691246
11.368693894577	0.99923579570010
11.338595234493	0.99923032664310
11.308655526217	0.99922481032709
11.278873513920	0.99921924733337
11.249247954972	0.99921363823889
11.219777619760	0.99920798361630
11.190461291527	0.99920228403392
11.161297766195	0.99919654005580
11.132285852209	0.99919075224167
11.103424370370	0.99918492114702
11.074712153676	0.99917904732306
11.046148047163	0.99917313131675
11.017730907755	0.99916717367082
10.989459604106	0.99916117492376
10.961333016453	0.99915513560987
10.933350036470	0.99914905625920
10.905509567115	0.99914293739767
10.877810522496	0.99913677954697
10.850251827723	0.99913058322464
10.822832418773	0.99912434894408
10.795551242348	0.99911807721453
10.768407255747	0.99911176854109
10.741399426729	0.99910542342478
10.714526733381	0.99909904236246
10.687788163993	0.99909262584696
10.661182716927	0.99908617436696
10.634709400497	0.99907968840713
10.608367232838	0.99907316844806
10.582155241793	0.99906661496628
10.556072464789	0.99906002843432
10.530117948718	0.99905340932067
10.504290749825	0.99904675808983
10.478589933590	0.99904007520230
10.453014574616	0.99903336111460
10.427563756522	0.99902661627927
10.402236571825	0.99901984114493
10.377032121841	0.99901303615624
10.351949516575	0.99900620175391
10.326987874612	0.99899933837478
10.302146323024	0.99899244645175
10.277423997257	0.99898552641386
10.252820041040	0.99897857868625
10.228333606278	0.99897160369022
10.203963852961	0.99896460184320
10.179709949066	0.99895757355881
10.155571070461	0.99895051924684
10.131546400811	0.99894343931324
10.107635131490	0.99893633416022
10.083836461487	0.99892920418616
10.060149597315	0.99892204978570
10.036573752929	0.99891487134973
10.013108149633	0.99890766926537
9.9897520159947	0.99890044391604
9.9665045877660	0.99889319568143
9.9433651077944	0.99888592493755
9.9203328259431	0.99887863205671
9.8974069990096	0.99887131740755
9.8745868906456	0.99886398135505
9.8518717712783	0.99885662426055
9.8292609180328	0.99884924648177
9.8067536146549	0.99884184837278
9.7843491514360	0.99883443028410
9.7620468251384	0.99882699256261
9.7398459389214	0.99881953555165
9.7177458022690	0.99881205959099
9.6957457309185	0.99880456501685
9.6738450467893	0.99879705216192
9.6520430779137	0.99878952135538
9.6303391583681	0.99878197292289
9.6087326282051	0.99877440718665
9.5872228333866	0.99876682446537
9.5658091257179	0.99875922507428
9.5444908627826	0.99875160932519
9.5232674078780	0.99874397752647
9.5021381299525	0.99873632998309
9.4811024035421	0.99872866699657
9.4601596087094	0.99872098886510
9.4393091309824	0.99871329588346
9.4185503612944	0.99870558834308
9.3978826959248	0.99869786653204
9.3773055364404	0.99869013073511
9.3568182896380	0.99868238123372
9.3364203674868	0.99867461830601
9.3161111870727	0.99866684222684
9.2958901705426	0.99865905326778
9.2757567450495	0.99865125169717
9.2557103426984	0.99864343778009
9.2357504004929	0.99863561177838
9.2158763602828	0.99862777395071
9.1960876687117	0.99861992455250
9.1763837771656	0.99861206383603
9.1567641417227	0.99860419205039
9.1372282231027	0.99859630944152
9.1177754866180	0.99858841625223
9.0984054021244	0.99858051272219
9.0791174439733	0.99857259908797
9.0599110909640	0.99856467558306
9.0407858262967	0.99855674243785
9.0217411375263	0.99854879987968
9.0027765165165	0.99854084813283
8.9838914593947	0.99853288741855
8.9650854665072	0.99852491795508
8.9463580423754	0.99851693995765
8.9277086956522	0.99850895363850
8.9091369390788	0.99850095920689
8.8906422894425	0.99849295686914
8.8722242675348	0.99848494682861
8.8538823981099	0.99847692928574
8.8356162098438	0.99846890443805
8.8174252352941	0.99846087248017
8.7993090108600	0.99845283360384
8.7812670767428	0.99844478799793
8.7632989769073	0.99843673584846
8.7454042590432	0.99842867733863
8.7275824745269	0.99842061264878
8.7098331783847	0.99841254195649
8.6921559292549	0.99840446543650
8.6745502893519	0.99839638326081
8.6570158244297	0.99838829559863
8.6395521037464	0.99838020261646
8.6221587000288	0.99837210447803
8.6048351894374	0.99836400134437
8.5875811515325	0.99835589337383
8.5703961692396	0.99834778072203
8.5532798288160	0.99833966354197
8.5362317198178	0.99833154198395
8.5192514350668	0.99832341619566
8.5023385706183	0.99831528632216
8.4854927257288	0.99830715250589
8.4687135028249	0.99829901488671
8.4520005074711	0.99829087360190
8.4353533483399	0.99828272878617
8.4187716371806	0.99827458057168
8.4022549887892	0.99826642908806
8.3858030209790	0.99825827446244
8.3694153545505	0.99825011681943
8.3530916132627	0.99824195628115
8.3368314238042	0.99823379296727
8.3206344157646	0.99822562699497
8.3045002216066	0.99821745847903
8.2884284766381	0.99820928753178
8.2724188189845	0.99820111426314
8.2564708895621	0.99819293878065
8.2405843320506	0.99818476118945
8.2247587928669	0.99817658159234
8.2089939211391	0.99816840008975
8.1932893686800	0.99816021677979
8.1776447899618	0.99815203175824
8.1620598420909	0.99814384511860
8.1465341847826	0.99813565695206
8.1310674803363	0.99812746734754
8.1156593936113	0.99811927639172
8.1003095920022	0.99811108416902
8.0850177454153	0.99810289076165
8.0697835262450	0.99809469624959
8.0546066093498	0.99808650071064
8.0394866720300	0.99807830422042
8.0244233940043	0.99807010685237
8.0094164573871	0.99806190867779
7.9944655466667	0.99805370976586
7.9795703486825	0.99804551018361
7.9647305526036	0.99803730999599
7.9499458499072	0.99802910926585
7.9352159343568	0.99802090805398
7.9205405019815	0.99801270641908
7.9059192510549	0.99800450441784
7.8913518820742	0.99799630210492
7.8768380977404	0.99798809953293
7.8623776029373	0.99797989675254
7.8479701047120	0.99797169381238
7.8336153122550	0.99796349075916
7.8193129368805	0.99795528763761
7.8050626920073	0.99794708449052
7.7908642931393	0.99793888135879
7.7767174578470	0.99793067828137
7.7626219057483	0.99792247529535
7.7485773584906	0.99791427243593
7.7345835397317	0.99790606973646
7.7206401751223	0.99789786722842
7.7067469922879	0.99788966494148
7.6929037208109	0.99788146290349
7.6791100922131	0.99787326114049
7.6653658399386	0.99786505967674
7.6516706993364	0.99785685853472
7.6380244076433	0.99784865773518
7.6244267039674	0.99784045729709
7.6108773292714	0.99783225723772
7.5973760263558	0.99782405757261
7.5839225398432	0.99781585831563
7.5705166161616	0.99780765947894
7.5571580035291	0.99779946107305
7.5438464519376	0.99779126310680
7.5305817131374	0.99778306558742
7.5173635406219	0.99777486852049
7.5041916896120	0.99776667191000
7.4910659170415	0.99775847575834
7.4779859815415	0.99775028006631
7.4649516434263	0.99774208483317
7.4519626646781	0.99773389005662
7.4390188089330	0.99772569573281
7.4261198414664	0.99771750185641
7.4132655291790	0.99770930842053
7.4004556405826	0.99770111541685
7.3876899457861	0.99769292283552
7.3749682164822	0.99768473066526
7.3622902259332	0.99767653889333
7.3496557489581	0.99766834750558
7.3370645619187	0.99766015648641
7.3245164427071	0.99765196581884
7.3120111707317	0.99764377548449
7.2995485269053	0.99763558546362
7.2871282936315	0.99762739573510
7.2747502547925	0.99761920627648
7.2624141957364	0.99761101706399
7.2501199032648	0.99760282807250
7.2378671656205	0.99759463927562
7.2256557724753	0.99758645064565
7.2134855149182	0.99757826215362
7.2013561854432	0.99757007376930
7.1892675779376	0.99756188546121
7.1772194876706	0.99755369719666
7.1652117112811	0.99754550894171
7.1532440467669	0.99753732066124
7.1413162934731	0.99752913231894
7.1294282520809	0.99752094387731
7.1175797245964	0.99751275529769
7.1057705143399	0.99750456654030
7.0940004259347	0.99749637756419
7.0822692652965	0.99748818832732
7.0705768396226	0.99747999878653
7.0589229573817	0.99747180889757
7.0473074283028	0.99746361861511
7.0357300633654	0.99745542789276
7.0241906747891	0.99744723668309
7.0126890760234	0.99743904493761
7.0012250817375	0.99743085260683
6.9897985078107	0.99742265964023
6.9784091713222	0.99741446598633
6.9670568905415	0.99740627159263
6.9557414849188	0.99739807640567
6.9444627750753	0.99738988037106
6.9332205827937	0.99738168343344
6.9220147310090	0.99737348553654
6.9108450437990	0.99736528662316
6.8997113463751	0.99735708663522
6.8886134650735	0.99734888551374
6.8775512273457	0.99734068319887
6.8665244617499	0.99733247962989
6.8555329979419	0.99732427474525
6.8445766666667	0.99731606848255
6.8336552997493	0.99730786077857
6.8227687300865	0.99729965156930
6.8119167916383	0.99729144078991
6.8010993194192	0.99728322837480
6.7903161494904	0.99727501425762
6.7795671189507	0.99726679837123
6.7688520659291	0.99725858064777
6.7581708295762	0.99725036101865
6.7475232500563	0.99724213941455
6.7369091685393	0.99723391576545
6.7263284271932	0.99722569000066
6.7157808691756	0.99721746204877
6.7052663386267	0.99720923183775
6.6947846806610	0.99720099929489
6.6843357413601	0.99719276434684
6.6739193677649	0.99718452691964
6.6635354078684	0.99717628693869
6.6531837106081	0.99716804432880
6.6428641258586	0.99715979901421
6.6325765044248	0.99715155091854
6.6223206980340	0.99714329996488
6.6120965593295	0.99713504607576
6.6019039418630	0.99712678917315
6.5917427000879	0.99711852917851
6.5816126893524	0.99711026601279
6.5715137658922	0.99710199959642
6.5614457868243	0.99709372984934
6.5514086101399	0.99708545669103
6.5414020946978	0.99707718004047
6.5314261002179	0.99706889981622
6.5214804872743	0.99706061593636
6.5115651172893	0.99705232831858
6.5016798525266	0.99704403688010
6.4918245560849	0.99703574153779
6.4819990918919	0.99702744220807
6.4722033246978	0.99701913880702
6.4624371200690	0.99701083125030
6.4527003443823	0.99700251945327
6.4429928648184	0.99699420333088
6.4333145493562	0.99698588279778
6.4236652667667	0.99697755776828
6.4140448866068	0.99696922815638
6.4044532792138	0.99696089387577
6.3948903156997	0.99695255483987
6.3853558679446	0.99694421096178
6.3758498085921	0.99693586215436
6.3663720110427	0.99692750833021
6.3569223494487	0.99691914940167
6.3475006987084	0.99691078528086
6.3381069344609	0.99690241587967
6.3287409330800	0.99689404110976
6.3194025716695	0.99688566088261
6.3100917280572	0.99687727510949
6.3008082807902	0.99686888370151
6.2915521091291	0.99686048656959
6.2823230930427	0.99685208362450
6.2731211132036	0.99684367477686
6.2639460509820	0.99683525993716
6.2547977884415	0.99682683901575
6.2456762083333	0.99681841192286
6.2365811940919	0.99680997856863
6.2275126298297	0.99680153886310
6.2184704003319	0.99679309271622
6.2094543910522	0.99678464003786
6.2004644881075	0.99677618073783
6.1915005782734	0.99676771472591
6.1825625489792	0.99675924191179
6.1736502883031	0.99675076220515
6.1647636849681	0.99674227551567
6.1559026283368	0.99673378175297
6.1470670084068	0.99672528082670
6.1382567158067	0.99671677264650
6.1294716417910	0.99670825712203
6.1207116782360	0.99669973416299
6.1119767176351	0.99669120367909
6.1032666530945	0.99668266558010
6.0945813783289	0.99667411977585
6.0859207876573	0.99666556617623
6.0772847759984	0.99665700469120
6.0686732388664	0.99664843523081
6.0600860723671	0.99663985770519
6.0515231731934	0.99663127202460
6.0429844386212	0.99662267809939
6.0344697665056	0.99661407584003
6.0259790552764	0.99660546515714
6.0175122039342	0.99659684596146
6.0090691120465	0.99658821816388
6.0006496797438	0.99657958167548
5.9922538077154	0.99657093640746
5.9838813972056	0.99656228227122
5.9755323500100	0.99655361917835
5.9672065684713	0.99654494704063
5.9589039554760	0.99653626577003
5.9506244144502	0.99652757527875
5.9423678493558	0.99651887547920
5.9341341646873	0.99651016628401
5.9259232654675	0.99650144760606
5.9177350572444	0.99649271935848
5.9095694460871	0.99648398145464
5.9014263385827	0.99647523380818
5.8933056418321	0.99646647633301
5.8852072634472	0.99645770894332
5.8771311115468	0.99644893155358
5.8690770947533	0.99644014407857
5.8610451221896	0.99643134643335
5.8530351034752	0.99642253853332
5.8450469487229	0.99641372029418
5.8370805685358	0.99640489163197
5.8291358740035	0.99639605246305
5.8212127766990	0.99638720270412
5.8133111886756	0.99637834227226
5.8054310224632	0.99636947108489
5.7975721910656	0.99636058905978
5.7897346079567	0.99635169611510
5.7819181870781	0.99634279216939
5.7741228428351	0.99633387714157
5.7663484900942	0.99632495095097
5.7585950441798	0.99631601351732
5.7508624208709	0.99630706476075
5.7431505363985	0.99629810460182
5.7354593074421	0.99628913296150
5.7277886511272	0.99628014976121
5.7201384850219	0.99627115492280
5.7125087271341	0.99626214836856
5.7048992959087	0.99625313002123
5.6973101102242	0.99624409980403
5.6897410893908	0.99623505764062
5.6821921531463	0.99622600345515
5.6746632216544	0.99621693717223
5.6671542155009	0.99620785871699
5.6596650556919	0.99619876801502
5.6521956636501	0.99618966499241
5.6447459612126	0.99618054957578
5.6373158706281	0.99617142169224
5.6299053145540	0.99616228126941
5.6225142160540	0.99615312823546
5.6151424985952	0.99614396251908
5.6077900860456	0.99613478404947
5.6004569026714	0.99612559275641
5.5931428731343	0.99611638857021
5.5858479224893	0.99610717142173
5.5785719761816	0.99609794124239
5.5713149600446	0.99608869796418
5.5640768002970	0.99607944151966
5.5568574235403	0.99607017184196
5.5496567567568	0.99606088886480
5.5424747273063	0.99605159252249
5.5353112629247	0.99604228274991
5.5281662917204	0.99603295948256
5.5210397421731	0.99602362265653
5.5139315431304	0.99601427220854
5.5068416238060	0.99600490807589
5.4997699137773	0.99599553019653
5.4927163429828	0.99598613850900
5.4856808417200	0.99597673295251
5.4786633406433	0.99596731346687
5.4716637707611	0.99595787999254
5.4646820634342	0.99594843247061
5.4577181503732	0.99593897084285
5.4507719636364	0.99592949505164
5.4438434356274	0.99592000504005
5.4369324990932	0.99591050075179
5.4300390871219	0.99590098213125
5.4231631331404	0.99589144912348
5.4163045709124	0.99588190167420
5.4094633345363	0.99587233972982
5.4026393584430	0.99586276323742
5.3958325773938	0.99585317214479
5.3890429264785	0.99584356640037
5.3822703411131	0.99583394595334
5.3755147570378	0.99582431075353
5.3687761103152	0.99581466075152
5.3620543373278	0.99580499589857
5.3553493747767	0.99579531614663
5.3486611596789	0.99578562144841
5.3419896293656	0.99577591175730
5.3353347214807	0.99576618702742
5.3286963739780	0.99575644721361
5.3220745251198	0.99574669227145
5.3154691134752	0.99573692215724
5.3088800779175	0.99572713682800
5.3023073576229	0.99571733624151
5.2957508920685	0.99570752035627
5.2892106210303	0.99569768913154
5.2826864845815	0.99568784252730
5.2761784230905	0.99567798050431
5.2696863772192	0.99566810302405
5.2632102879213	0.99565821004877
5.2567500964405	0.99564830154148
5.2503057443082	0.99563837746592
5.2438771733427	0.99562843778663
5.2374643256464	0.99561848246890
5.2310671436050	0.99560851147876
5.2246855698850	0.99559852478304
5.2183195474326	0.99558852234932
5.2119690194715	0.99557850414598
5.2056339295016	0.99556847014214
5.1993142212973	0.99555842030772
5.1930098389052	0.99554835461340
5.1867207266436	0.99553827303067
5.1804468290997	0.99552817553177
5.1741880911288	0.99551806208973
5.1679444578521	0.99550793267839
5.1617158746556	0.99549778727235
5.1555022871883	0.99548762584701
5.1493036413604	0.99547744837857
5.1431198833419	0.99546725484399
5.1369509595613	0.99545704522105
5.1307968167037	0.99544681948833
5.1246574017094	0.99543657762518
5.1185326617722	0.99542631961176
5.1124225443383	0.99541604542904
5.1063269971044	0.99540575505876
5.1002459680163	0.99539544848348
5.0941794052676	0.99538512568656
5.0881272572980	0.99537478665215
5.0820894727920	0.99536443136522
5.0760660006773	0.99535405981151
5.0700567901235	0.99534367197760
5.0640617905405	0.99533326785085
5.0580809515775	0.99532284741944
5.0521142231210	0.99531241067233
5.0461615552937	0.99530195759931
5.0402228984533	0.99529148819097
5.0342982031906	0.99528100243869
5.0283874203287	0.99527050033467
5.0224905009214	0.99525998187190
5.0166073962517	0.99524944704420
5.0107380578305	0.99523889584617
5.0048824373957	0.99522832827323
4.9990404869101	0.99521774432159
4.9932121585610	0.99520714398828
4.9873974047579	0.99519652727113
4.9815961781323	0.99518589416876
4.9758084315353	0.99517524468062
4.9700341180371	0.99516457880693
4.9642731909256	0.99515389654872
4.9585256037049	0.99514319790785
4.9527913100942	0.99513248288694
4.9470702640264	0.99512175148943
4.9413624196473	0.99511100371956
4.9356677313138	0.99510023958236
4.9299861535932	0.99508945908365
4.9243176412615	0.99507866223005
4.9186621493027	0.99506784902899
4.9130196329072	0.99505701948867
4.9073900474709	0.99504617361809
4.9017733485939	0.99503531142703
4.8961694920790	0.99502443292608
4.8905784339315	0.99501353812660
4.8850001303569	0.99500262704074
4.8794345377604	0.99499169968142
4.8738816127459	0.99498075606236
4.8683413121143	0.99496979619806
4.8628135928629	0.99495882010377
4.8572984121841	0.99494782779556
4.8517957274640	0.99493681929023
4.8463054962819	0.99492579460537
4.8408276764088	0.99491475375936
4.8353622258065	0.99490369677130
