#Parameters = {thARC=0; nARC=3; thsub=1; p=1; nSub=5}
#"Wavelength / um"	"T (913) [Real Part]"
#---------------------------------------
14.989622900000	0.55555485940068
14.937342202292	0.55555491743443
14.885424925521	0.55555497173574
14.833867293419	0.55555502243139
14.782665581854	0.55555506964596
14.731816117936	0.55555511350189
14.681315279138	0.55555515411946
14.631159492435	0.55555519161679
14.581345233463	0.55555522610992
14.531869025691	0.55555525771271
14.482727439614	0.55555528653698
14.433917091960	0.55555531269240
14.385434644914	0.55555533628659
14.337276805356	0.55555535742510
14.289440324118	0.55555537621141
14.241921995249	0.55555539274697
14.194718655303	0.55555540713119
14.147827182633	0.55555541946146
14.101244496707	0.55555542983319
14.054967557431	0.55555543833977
14.008993364486	0.55555544507263
13.963318956684	0.55555545012124
13.917941411328	0.55555545357311
13.872857843591	0.55555545551383
13.828065405904	0.55555545602705
13.783561287356	0.55555545519455
13.739342713107	0.55555545309619
13.695406943810	0.55555544980997
13.651751275046	0.55555544541201
13.608373036768	0.55555543997662
13.565269592760	0.55555543357625
13.522438340099	0.55555542628156
13.479876708633	0.55555541816139
13.437582160466	0.55555540928282
13.395552189455	0.55555539971115
13.353784320713	0.55555538950994
13.312276110124	0.55555537874100
13.271025143869	0.55555536746444
13.230029037952	0.55555535573866
13.189285437747	0.55555534362039
13.148792017544	0.55555533116467
13.108546480105	0.55555531842492
13.068546556234	0.55555530545288
13.028790004346	0.55555529229872
12.989274610052	0.55555527901099
12.949998185745	0.55555526563665
12.910958570198	0.55555525222111
12.872153628167	0.55555523880823
12.833581250000	0.55555522544032
12.795239351259	0.55555521215820
12.757125872340	0.55555519900120
12.719238778108	0.55555518600713
12.681576057530	0.55555517321239
12.644135723323	0.55555516065191
12.606915811606	0.55555514835919
12.569914381551	0.55555513636635
12.533129515050	0.55555512470409
12.496559316382	0.55555511340177
12.460201911887	0.55555510248736
12.424055449648	0.55555509198754
12.388118099174	0.55555508192762
12.352388051092	0.55555507233167
12.316863516845	0.55555506322242
12.281542728390	0.55555505462139
12.246423937908	0.55555504654882
12.211505417515	0.55555503902374
12.176785458976	0.55555503206396
12.142262373431	0.55555502568612
12.107934491115	0.55555501990567
12.073800161095	0.55555501473691
12.039857751004	0.55555501019302
12.006105646776	0.55555500628604
11.972542252396	0.55555500302693
11.939165989646	0.55555500042555
11.905975297855	0.55555499849073
11.872968633663	0.55555499723023
11.840144470774	0.55555499665079
11.807501299724	0.55555499675815
11.775037627651	0.55555499755704
11.742751978065	0.55555499905125
11.710642890625	0.55555500124359
11.678708920919	0.55555500413596
11.646948640249	0.55555500772932
11.615360635413	0.55555501202375
11.583943508501	0.55555501701843
11.552695876686	0.55555502271170
11.521616372022	0.55555502910104
11.490703641242	0.55555503618310
11.459956345566	0.55555504395373
11.429373160503	0.55555505240800
11.398952775665	0.55555506154018
11.368693894577	0.55555507134381
11.338595234493	0.55555508181167
11.308655526217	0.55555509293582
11.278873513920	0.55555510470765
11.249247954972	0.55555511711783
11.219777619760	0.55555513015637
11.190461291527	0.55555514381263
11.161297766195	0.55555515807534
11.132285852209	0.55555517293262
11.103424370370	0.55555518837197
11.074712153676	0.55555520438032
11.046148047163	0.55555522094405
11.017730907755	0.55555523804896
10.989459604106	0.55555525568034
10.961333016453	0.55555527382295
10.933350036470	0.55555529246108
10.905509567115	0.55555531157850
10.877810522496	0.55555533115853
10.850251827723	0.55555535118406
10.822832418773	0.55555537163751
10.795551242348	0.55555539250092
10.768407255747	0.55555541375589
10.741399426729	0.55555543538368
10.714526733381	0.55555545736514
10.687788163993	0.55555547968078
10.661182716927	0.55555550231079
10.634709400497	0.55555552523501
10.608367232838	0.55555554843298
10.582155241793	0.55555557188396
10.556072464789	0.55555559556692
10.530117948718	0.55555561946058
10.504290749825	0.55555564354340
10.478589933590	0.55555566779361
10.453014574616	0.55555569218923
10.427563756522	0.55555571670807
10.402236571825	0.55555574132775
10.377032121841	0.55555576602572
10.351949516575	0.55555579077927
10.326987874612	0.55555581556555
10.302146323024	0.55555584036154
10.277423997257	0.55555586514416
10.252820041040	0.55555588989017
10.228333606278	0.55555591457628
10.203963852961	0.55555593917909
10.179709949066	0.55555596367516
10.155571070461	0.55555598804097
10.131546400811	0.55555601225299
10.107635131490	0.55555603628764
10.083836461487	0.55555606012134
10.060149597315	0.55555608373050
10.036573752929	0.55555610709154
10.013108149633	0.55555613018091
9.9897520159947	0.55555615297510
9.9665045877660	0.55555617545063
9.9433651077944	0.55555619758408
9.9203328259431	0.55555621935211
9.8974069990096	0.55555624073146
9.8745868906456	0.55555626169896
9.8518717712783	0.55555628223154
9.8292609180328	0.55555630230625
9.8067536146549	0.55555632190027
9.7843491514360	0.55555634099090
9.7620468251384	0.55555635955560
9.7398459389214	0.55555637757198
9.7177458022690	0.55555639501782
9.6957457309185	0.55555641187109
9.6738450467893	0.55555642810992
9.6520430779137	0.55555644371265
9.6303391583681	0.55555645865783
9.6087326282051	0.55555647292423
9.5872228333866	0.55555648649083
9.5658091257179	0.55555649933684
9.5444908627826	0.55555651144174
9.5232674078780	0.55555652278523
9.5021381299525	0.55555653334729
9.4811024035421	0.55555654310816
9.4601596087094	0.55555655204835
9.4393091309824	0.55555656014868
9.4185503612944	0.55555656739023
9.3978826959248	0.55555657375440
9.3773055364404	0.55555657922288
9.3568182896380	0.55555658377770
9.3364203674868	0.55555658740120
9.3161111870727	0.55555659007603
9.2958901705426	0.55555659178521
9.2757567450495	0.55555659251207
9.2557103426984	0.55555659224032
9.2357504004929	0.55555659095400
9.2158763602828	0.55555658863752
9.1960876687117	0.55555658527567
9.1763837771656	0.55555658085359
9.1567641417227	0.55555657535682
9.1372282231027	0.55555656877127
9.1177754866180	0.55555656108325
9.0984054021244	0.55555655227946
9.0791174439733	0.55555654234700
9.0599110909640	0.55555653127338
9.0407858262967	0.55555651904652
9.0217411375263	0.55555650565474
9.0027765165165	0.55555649108680
8.9838914593947	0.55555647533186
8.9650854665072	0.55555645837953
8.9463580423754	0.55555644021984
8.9277086956522	0.55555642084324
8.9091369390788	0.55555640024063
8.8906422894425	0.55555637840337
8.8722242675348	0.55555635532324
8.8538823981099	0.55555633099246
8.8356162098438	0.55555630540373
8.8174252352941	0.55555627855018
8.7993090108600	0.55555625042540
8.7812670767428	0.55555622102344
8.7632989769073	0.55555619033881
8.7454042590432	0.55555615836648
8.7275824745269	0.55555612510188
8.7098331783847	0.55555609054092
8.6921559292549	0.55555605467996
8.6745502893519	0.55555601751583
8.6570158244297	0.55555597904585
8.6395521037464	0.55555593926778
8.6221587000288	0.55555589817988
8.6048351894374	0.55555585578086
8.5875811515325	0.55555581206991
8.5703961692396	0.55555576704671
8.5532798288160	0.55555572071139
8.5362317198178	0.55555567306456
8.5192514350668	0.55555562410730
8.5023385706183	0.55555557384120
8.4854927257288	0.55555552226826
8.4687135028249	0.55555546939101
8.4520005074711	0.55555541521242
8.4353533483399	0.55555535973594
8.4187716371806	0.55555530296549
8.4022549887892	0.55555524490546
8.3858030209790	0.55555518556072
8.3694153545505	0.55555512493658
8.3530916132627	0.55555506303885
8.3368314238042	0.55555499987377
8.3206344157646	0.55555493544806
8.3045002216066	0.55555486976890
8.2884284766381	0.55555480284393
8.2724188189845	0.55555473468124
8.2564708895621	0.55555466528937
8.2405843320506	0.55555459467732
8.2247587928669	0.55555452285454
8.2089939211391	0.55555444983092
8.1932893686800	0.55555437561680
8.1776447899618	0.55555430022295
8.1620598420909	0.55555422366057
8.1465341847826	0.55555414594133
8.1310674803363	0.55555406707729
8.1156593936113	0.55555398708096
8.1003095920022	0.55555390596526
8.0850177454153	0.55555382374355
8.0697835262450	0.55555374042958
8.0546066093498	0.55555365603753
8.0394866720300	0.55555357058199
8.0244233940043	0.55555348407794
8.0094164573871	0.55555339654076
7.9944655466667	0.55555330798624
7.9795703486825	0.55555321843055
7.9647305526036	0.55555312789024
7.9499458499072	0.55555303638225
7.9352159343568	0.55555294392390
7.9205405019815	0.55555285053288
7.9059192510549	0.55555275622723
7.8913518820742	0.55555266102537
7.8768380977404	0.55555256494606
7.8623776029373	0.55555246800844
7.8479701047120	0.55555237023195
7.8336153122550	0.55555227163641
7.8193129368805	0.55555217224195
7.8050626920073	0.55555207206904
7.7908642931393	0.55555197113847
7.7767174578470	0.55555186947134
7.7626219057483	0.55555176708907
7.7485773584906	0.55555166401337
7.7345835397317	0.55555156026626
7.7206401751223	0.55555145587006
7.7067469922879	0.55555135084735
7.6929037208109	0.55555124522101
7.6791100922131	0.55555113901419
7.6653658399386	0.55555103225030
7.6516706993364	0.55555092495301
7.6380244076433	0.55555081714625
7.6244267039674	0.55555070885419
7.6108773292714	0.55555060010123
7.5973760263558	0.55555049091202
7.5839225398432	0.55555038131142
7.5705166161616	0.55555027132453
7.5571580035291	0.55555016097663
7.5438464519376	0.55555005029324
7.5305817131374	0.55554993930004
7.5173635406219	0.55554982802292
7.5041916896120	0.55554971648796
7.4910659170415	0.55554960472139
7.4779859815415	0.55554949274963
7.4649516434263	0.55554938059925
7.4519626646781	0.55554926829697
7.4390188089330	0.55554915586966
7.4261198414664	0.55554904334432
7.4132655291790	0.55554893074810
7.4004556405826	0.55554881810824
7.3876899457861	0.55554870545212
7.3749682164822	0.55554859280722
7.3622902259332	0.55554848020110
7.3496557489581	0.55554836766145
7.3370645619187	0.55554825521601
7.3245164427071	0.55554814289260
7.3120111707317	0.55554803071912
7.2995485269053	0.55554791872352
7.2871282936315	0.55554780693380
7.2747502547925	0.55554769537800
7.2624141957364	0.55554758408422
7.2501199032648	0.55554747308055
7.2378671656205	0.55554736239512
7.2256557724753	0.55554725205609
7.2134855149182	0.55554714209158
7.2013561854432	0.55554703252973
7.1892675779376	0.55554692339868
7.1772194876706	0.55554681472652
7.1652117112811	0.55554670654134
7.1532440467669	0.55554659887116
7.1413162934731	0.55554649174399
7.1294282520809	0.55554638518776
7.1175797245964	0.55554627923036
7.1057705143399	0.55554617389958
7.0940004259347	0.55554606922317
7.0822692652965	0.55554596522877
7.0705768396226	0.55554586194394
7.0589229573817	0.55554575939613
7.0473074283028	0.55554565761267
7.0357300633654	0.55554555662080
7.0241906747891	0.55554545644762
7.0126890760234	0.55554535712010
7.0012250817375	0.55554525866505
6.9897985078107	0.55554516110916
6.9784091713222	0.55554506447895
6.9670568905415	0.55554496880078
6.9557414849188	0.55554487410081
6.9444627750753	0.55554478040507
6.9332205827937	0.55554468773936
6.9220147310090	0.55554459612930
6.9108450437990	0.55554450560030
6.8997113463751	0.55554441617758
6.8886134650735	0.55554432788611
6.8775512273457	0.55554424075065
6.8665244617499	0.55554415479574
6.8555329979419	0.55554407004565
6.8445766666667	0.55554398652441
6.8336552997493	0.55554390425582
6.8227687300865	0.55554382326338
6.8119167916383	0.55554374357033
6.8010993194192	0.55554366519966
6.7903161494904	0.55554358817403
6.7795671189507	0.55554351251584
6.7688520659291	0.55554343824718
6.7581708295762	0.55554336538984
6.7475232500563	0.55554329396528
6.7369091685393	0.55554322399466
6.7263284271932	0.55554315549881
6.7157808691756	0.55554308849820
6.7052663386267	0.55554302301301
6.6947846806610	0.55554295906302
6.6843357413601	0.55554289666769
6.6739193677649	0.55554283584611
6.6635354078684	0.55554277661702
6.6531837106081	0.55554271899875
6.6428641258586	0.55554266300928
6.6325765044248	0.55554260866620
6.6223206980340	0.55554255598672
6.6120965593295	0.55554250498762
6.6019039418630	0.55554245568531
6.5917427000879	0.55554240809578
6.5816126893524	0.55554236223460
6.5715137658922	0.55554231811693
6.5614457868243	0.55554227575749
6.5514086101399	0.55554223517058
6.5414020946978	0.55554219637006
6.5314261002179	0.55554215936936
6.5214804872743	0.55554212418143
6.5115651172893	0.55554209081881
6.5016798525266	0.55554205929355
6.4918245560849	0.55554202961726
6.4819990918919	0.55554200180105
6.4722033246978	0.55554197585560
6.4624371200690	0.55554195179110
6.4527003443823	0.55554192961723
6.4429928648184	0.55554190934321
6.4333145493562	0.55554189097779
6.4236652667667	0.55554187452918
6.4140448866068	0.55554186000512
6.4044532792138	0.55554184741285
6.3948903156997	0.55554183675909
6.3853558679446	0.55554182805005
6.3758498085921	0.55554182129144
6.3663720110427	0.55554181648845
6.3569223494487	0.55554181364573
6.3475006987084	0.55554181276743
6.3381069344609	0.55554181385716
6.3287409330800	0.55554181691800
6.3194025716695	0.55554182195249
6.3100917280572	0.55554182896266
6.3008082807902	0.55554183794996
6.2915521091291	0.55554184891534
6.2823230930427	0.55554186185917
6.2731211132036	0.55554187678129
6.2639460509820	0.55554189368099
6.2547977884415	0.55554191255701
6.2456762083333	0.55554193340752
6.2365811940919	0.55554195623016
6.2275126298297	0.55554198102199
6.2184704003319	0.55554200777953
6.2094543910522	0.55554203649871
6.2004644881075	0.55554206717493
6.1915005782734	0.55554209980301
6.1825625489792	0.55554213437720
6.1736502883031	0.55554217089119
6.1647636849681	0.55554220933811
6.1559026283368	0.55554224971051
6.1470670084068	0.55554229200037
6.1382567158067	0.55554233619911
6.1294716417910	0.55554238229758
6.1207116782360	0.55554243028605
6.1119767176351	0.55554248015422
6.1032666530945	0.55554253189124
6.0945813783289	0.55554258548565
6.0859207876573	0.55554264092546
6.0772847759984	0.55554269819808
6.0686732388664	0.55554275729037
6.0600860723671	0.55554281818861
6.0515231731934	0.55554288087851
6.0429844386212	0.55554294534522
6.0344697665056	0.55554301157331
6.0259790552764	0.55554307954680
6.0175122039342	0.55554314924914
6.0090691120465	0.55554322066320
6.0006496797438	0.55554329377131
5.9922538077154	0.55554336855522
5.9838813972056	0.55554344499615
5.9755323500100	0.55554352307473
5.9672065684713	0.55554360277106
5.9589039554760	0.55554368406467
5.9506244144502	0.55554376693454
5.9423678493558	0.55554385135911
5.9341341646873	0.55554393731628
5.9259232654675	0.55554402478339
5.9177350572444	0.55554411373725
5.9095694460871	0.55554420415412
5.9014263385827	0.55554429600975
5.8933056418321	0.55554438927932
5.8852072634472	0.55554448393752
5.8771311115468	0.55554457995850
5.8690770947533	0.55554467731588
5.8610451221896	0.55554477598276
5.8530351034752	0.55554487593176
5.8450469487229	0.55554497713494
5.8370805685358	0.55554507956389
5.8291358740035	0.55554518318968
5.8212127766990	0.55554528798290
5.8133111886756	0.55554539391362
5.8054310224632	0.55554550095144
5.7975721910656	0.55554560906547
5.7897346079567	0.55554571822435
5.7819181870781	0.55554582839622
5.7741228428351	0.55554593954878
5.7663484900942	0.55554605164925
5.7585950441798	0.55554616466439
5.7508624208709	0.55554627856051
5.7431505363985	0.55554639330347
5.7354593074421	0.55554650885868
5.7277886511272	0.55554662519113
5.7201384850219	0.55554674226537
5.7125087271341	0.55554686004551
5.7048992959087	0.55554697849526
5.6973101102242	0.55554709757792
5.6897410893908	0.55554721725637
5.6821921531463	0.55554733749308
5.6746632216544	0.55554745825016
5.6671542155009	0.55554757948930
5.6596650556919	0.55554770117182
5.6521956636501	0.55554782325867
5.6447459612126	0.55554794571044
5.6373158706281	0.55554806848735
5.6299053145540	0.55554819154926
5.6225142160540	0.55554831485570
5.6151424985952	0.55554843836586
5.6077900860456	0.55554856203860
5.6004569026714	0.55554868583245
5.5931428731343	0.55554880970562
5.5858479224893	0.55554893361604
5.5785719761816	0.55554905752132
5.5713149600446	0.55554918137877
5.5640768002970	0.55554930514544
5.5568574235403	0.55554942877810
5.5496567567568	0.55554955223323
5.5424747273063	0.55554967546709
5.5353112629247	0.55554979843566
5.5281662917204	0.55554992109469
5.5210397421731	0.55555004339969
5.5139315431304	0.55555016530598
5.5068416238060	0.55555028676861
5.4997699137773	0.55555040774246
5.4927163429828	0.55555052818222
5.4856808417200	0.55555064804237
5.4786633406433	0.55555076727721
5.4716637707611	0.55555088584090
5.4646820634342	0.55555100368740
5.4577181503732	0.55555112077056
5.4507719636364	0.55555123704406
5.4438434356274	0.55555135246145
5.4369324990932	0.55555146697618
5.4300390871219	0.55555158054157
5.4231631331404	0.55555169311083
5.4163045709124	0.55555180463710
5.4094633345363	0.55555191507343
5.4026393584430	0.55555202437278
5.3958325773938	0.55555213248808
5.3890429264785	0.55555223937217
5.3822703411131	0.55555234497787
5.3755147570378	0.55555244925797
5.3687761103152	0.55555255216522
5.3620543373278	0.55555265365239
5.3553493747767	0.55555275367222
5.3486611596789	0.55555285217746
5.3419896293656	0.55555294912090
5.3353347214807	0.55555304445534
5.3286963739780	0.55555313813364
5.3220745251198	0.55555323010870
5.3154691134752	0.55555332033347
5.3088800779175	0.55555340876100
5.3023073576229	0.55555349534440
5.2957508920685	0.55555358003689
5.2892106210303	0.55555366279180
5.2826864845815	0.55555374356254
5.2761784230905	0.55555382230269
5.2696863772192	0.55555389896594
5.2632102879213	0.55555397350615
5.2567500964405	0.55555404587733
5.2503057443082	0.55555411603364
5.2438771733427	0.55555418392946
5.2374643256464	0.55555424951933
5.2310671436050	0.55555431275802
5.2246855698850	0.55555437360049
5.2183195474326	0.55555443200194
5.2119690194715	0.55555448791782
5.2056339295016	0.55555454130379
5.1993142212973	0.55555459211580
5.1930098389052	0.55555464031007
5.1867207266436	0.55555468584309
5.1804468290997	0.55555472867164
5.1741880911288	0.55555476875281
5.1679444578521	0.55555480604401
5.1617158746556	0.55555484050297
5.1555022871883	0.55555487208775
5.1493036413604	0.55555490075676
5.1431198833419	0.55555492646879
5.1369509595613	0.55555494918297
5.1307968167037	0.55555496885882
5.1246574017094	0.55555498545627
5.1185326617722	0.55555499893563
5.1124225443383	0.55555500925764
5.1063269971044	0.55555501638345
5.1002459680163	0.55555502027466
5.0941794052676	0.55555502089330
5.0881272572980	0.55555501820189
5.0820894727920	0.55555501216337
5.0760660006773	0.55555500274121
5.0700567901235	0.55555498989933
5.0640617905405	0.55555497360217
5.0580809515775	0.55555495381469
5.0521142231210	0.55555493050234
5.0461615552937	0.55555490363114
5.0402228984533	0.55555487316763
5.0342982031906	0.55555483907890
5.0283874203287	0.55555480133263
5.0224905009214	0.55555475989705
5.0166073962517	0.55555471474097
5.0107380578305	0.55555466583383
5.0048824373957	0.55555461314564
4.9990404869101	0.55555455664704
4.9932121585610	0.55555449630929
4.9873974047579	0.55555443210430
4.9815961781323	0.55555436400460
4.9758084315353	0.55555429198339
4.9700341180371	0.55555421601454
4.9642731909256	0.55555413607260
4.9585256037049	0.55555405213276
4.9527913100942	0.55555396417097
4.9470702640264	0.55555387216383
4.9413624196473	0.55555377608868
4.9356677313138	0.55555367592357
4.9299861535932	0.55555357164728
4.9243176412615	0.55555346323935
4.9186621493027	0.55555335068004
4.9130196329072	0.55555323395038
4.9073900474709	0.55555311303218
4.9017733485939	0.55555298790801
4.8961694920790	0.55555285856123
4.8905784339315	0.55555272497598
4.8850001303569	0.55555258713722
4.8794345377604	0.55555244503071
4.8738816127459	0.55555229864302
4.8683413121143	0.55555214796156
4.8628135928629	0.55555199297457
4.8572984121841	0.55555183367112
4.8517957274640	0.55555167004113
4.8463054962819	0.55555150207540
4.8408276764088	0.55555132976556
4.8353622258065	0.55555115310413
