#Parameters = {thARC=1; nARC=3; thsub=1; p=1; nSub=5}
#"Wavelength / um"	"T (918) [Real Part]"
#---------------------------------------
14.989622900000	0.86473460434797
14.937342202292	0.86608570177801
14.885424925521	0.86742507000664
14.833867293419	0.86875244289533
14.782665581854	0.87006755519328
14.731816117936	0.87137014262878
14.681315279138	0.87265994200129
14.631159492435	0.87393669127416
14.581345233463	0.87520012966815
14.531869025691	0.87644999775544
14.482727439614	0.87768603755414
14.433917091960	0.87890799262343
14.385434644914	0.88011560815885
14.337276805356	0.88130863108833
14.289440324118	0.88248681016806
14.241921995249	0.88364989607899
14.194718655303	0.88479764152326
14.147827182633	0.88592980132071
14.101244496707	0.88704613250557
14.054967557431	0.88814639442303
14.008993364486	0.88923034882565
13.963318956684	0.89029775996969
13.917941411328	0.89134839471102
13.872857843591	0.89238202260099
13.828065405904	0.89339841598159
13.783561287356	0.89439735008027
13.739342713107	0.89537860310438
13.695406943810	0.89634195633464
13.651751275046	0.89728719421828
13.608373036768	0.89821410446109
13.565269592760	0.89912247811892
13.522438340099	0.90001210968804
13.479876708633	0.90088279719463
13.437582160466	0.90173434228314
13.395552189455	0.90256655030354
13.353784320713	0.90337923039743
13.312276110124	0.90417219558262
13.271025143869	0.90494526283666
13.230029037952	0.90569825317864
13.189285437747	0.90643099174983
13.148792017544	0.90714330789230
13.108546480105	0.90783503522631
13.068546556234	0.90850601172567
13.028790004346	0.90915607979165
12.989274610052	0.90978508632456
12.949998185745	0.91039288279392
12.910958570198	0.91097932530627
12.872153628167	0.91154427467119
12.833581250000	0.91208759646507
12.795239351259	0.91260916109268
12.757125872340	0.91310884384674
12.719238778108	0.91358652496493
12.681576057530	0.91404208968473
12.644135723323	0.91447542829595
12.606915811606	0.91488643619055
12.569914381551	0.91527501391032
12.533129515050	0.91564106719172
12.496559316382	0.91598450700848
12.460201911887	0.91630524961114
12.424055449648	0.91660321656448
12.388118099174	0.91687833478183
12.352388051092	0.91713053655686
12.316863516845	0.91735975959260
12.281542728390	0.91756594702766
12.246423937908	0.91774904745963
12.211505417515	0.91790901496575
12.176785458976	0.91804580912058
12.142262373431	0.91815939501097
12.107934491115	0.91824974324802
12.073800161095	0.91831682997626
12.039857751004	0.91836063687987
12.006105646776	0.91838115118596
11.972542252396	0.91837836566511
11.939165989646	0.91835227862879
11.905975297855	0.91830289392404
11.872968633663	0.91823022092517
11.840144470774	0.91813427452263
11.807501299724	0.91801507510894
11.775037627651	0.91787264856183
11.742751978065	0.91770702622446
11.710642890625	0.91751824488291
11.678708920919	0.91730634674075
11.646948640249	0.91707137939095
11.615360635413	0.91681339578498
11.583943508501	0.91653245419919
11.552695876686	0.91622861819854
11.521616372022	0.91590195659764
11.490703641242	0.91555254341925
11.459956345566	0.91518045785012
11.429373160503	0.91478578419437
11.398952775665	0.91436861182440
11.368693894577	0.91392903512926
11.338595234493	0.91346715346080
11.308655526217	0.91298307107739
11.278873513920	0.91247689708533
11.249247954972	0.91194874537814
11.219777619760	0.91139873457361
11.190461291527	0.91082698794875
11.161297766195	0.91023363337280
11.132285852209	0.90961880323805
11.103424370370	0.90898263438898
11.074712153676	0.90832526804936
11.046148047163	0.90764684974768
11.017730907755	0.90694752924078
10.989459604106	0.90622746043597
10.961333016453	0.90548680131132
10.933350036470	0.90472571383478
10.905509567115	0.90394436388152
10.877810522496	0.90314292115012
10.850251827723	0.90232155907746
10.822832418773	0.90148045475229
10.795551242348	0.90061978882771
10.768407255747	0.89973974543266
10.741399426729	0.89884051208218
10.714526733381	0.89792227958700
10.687788163993	0.89698524196222
10.661182716927	0.89602959633511
10.634709400497	0.89505554285225
10.608367232838	0.89406328458620
10.582155241793	0.89305302744137
10.556072464789	0.89202498005958
10.530117948718	0.89097935372513
10.504290749825	0.88991636226971
10.478589933590	0.88883622197671
10.453014574616	0.88773915148570
10.427563756522	0.88662537169654
10.402236571825	0.88549510567360
10.377032121841	0.88434857854981
10.351949516575	0.88318601743105
10.326987874612	0.88200765130039
10.302146323024	0.88081371092282
10.277423997257	0.87960442875003
10.252820041040	0.87838003882576
10.228333606278	0.87714077669124
10.203963852961	0.87588687929147
10.179709949066	0.87461858488164
10.155571070461	0.87333613293444
10.131546400811	0.87203976404779
10.107635131490	0.87072971985340
10.083836461487	0.86940624292588
10.060149597315	0.86806957669288
10.036573752929	0.86671996534585
10.013108149633	0.86535765375186
9.9897520159947	0.86398288736616
9.9665045877660	0.86259591214595
9.9433651077944	0.86119697446491
9.9203328259431	0.85978632102896
9.8974069990096	0.85836419879314
9.8745868906456	0.85693085487943
9.8518717712783	0.85548653649597
9.8292609180328	0.85403149085734
9.8067536146549	0.85256596510606
9.7843491514360	0.85109020623546
9.7620468251384	0.84960446101386
9.7398459389214	0.84810897590982
9.7177458022690	0.84660399701907
9.6957457309185	0.84508976999262
9.6738450467893	0.84356653996628
9.6520430779137	0.84203455149164
9.6303391583681	0.84049404846840
9.6087326282051	0.83894527407828
9.5872228333866	0.83738847072021
9.5658091257179	0.83582387994720
9.5444908627826	0.83425174240449
9.5232674078780	0.83267229776943
9.5021381299525	0.83108578469260
9.4811024035421	0.82949244074065
9.4601596087094	0.82789250234064
9.4393091309824	0.82628620472579
9.4185503612944	0.82467378188287
9.3978826959248	0.82305546650102
9.3773055364404	0.82143148992228
9.3568182896380	0.81980208209339
9.3364203674868	0.81816747151940
9.3161111870727	0.81652788521853
9.2958901705426	0.81488354867879
9.2757567450495	0.81323468581596
9.2557103426984	0.81158151893315
9.2357504004929	0.80992426868184
9.2158763602828	0.80826315402439
9.1960876687117	0.80659839219811
9.1763837771656	0.80493019868065
9.1567641417227	0.80325878715707
9.1372282231027	0.80158436948815
9.1177754866180	0.79990715568023
9.0984054021244	0.79822735385649
9.0791174439733	0.79654517022953
9.0599110909640	0.79486080907554
9.0407858262967	0.79317447270958
9.0217411375263	0.79148636146244
9.0027765165165	0.78979667365872
8.9838914593947	0.78810560559623
8.9650854665072	0.78641335152677
8.9463580423754	0.78472010363812
8.9277086956522	0.78302605203730
8.9091369390788	0.78133138473511
8.8906422894425	0.77963628763185
8.8722242675348	0.77794094450426
8.8538823981099	0.77624553699366
8.8356162098438	0.77455024459516
8.8174252352941	0.77285524464816
8.7993090108600	0.77116071232778
8.7812670767428	0.76946682063752
8.7632989769073	0.76777374040297
8.7454042590432	0.76608164026645
8.7275824745269	0.76439068668284
8.7098331783847	0.76270104391628
8.6921559292549	0.76101287403792
8.6745502893519	0.75932633692455
8.6570158244297	0.75764159025829
8.6395521037464	0.75595878952702
8.6221587000288	0.75427808802581
8.6048351894374	0.75259963685919
8.5875811515325	0.75092358494422
8.5703961692396	0.74925007901440
8.5532798288160	0.74757926362440
8.5362317198178	0.74591128115547
8.5192514350668	0.74424627182171
8.5023385706183	0.74258437367697
8.4854927257288	0.74092572262248
8.4687135028249	0.73927045241520
8.4520005074711	0.73761869467676
8.4353533483399	0.73597057890306
8.4187716371806	0.73432623247452
8.4022549887892	0.73268578066683
8.3858030209790	0.73104934666238
8.3694153545505	0.72941705156216
8.3530916132627	0.72778901439823
8.3368314238042	0.72616535214663
8.3206344157646	0.72454617974092
8.3045002216066	0.72293161008600
8.2884284766381	0.72132175407253
8.2724188189845	0.71971672059173
8.2564708895621	0.71811661655052
8.2405843320506	0.71652154688719
8.2247587928669	0.71493161458732
8.2089939211391	0.71334692070010
8.1932893686800	0.71176756435502
8.1776447899618	0.71019364277881
8.1620598420909	0.70862525131275
8.1465341847826	0.70706248343020
8.1310674803363	0.70550543075448
8.1156593936113	0.70395418307692
8.1003095920022	0.70240882837520
8.0850177454153	0.70086945283192
8.0697835262450	0.69933614085331
8.0546066093498	0.69780897508821
8.0394866720300	0.69628803644720
8.0244233940043	0.69477340412186
8.0094164573871	0.69326515560426
7.9944655466667	0.69176336670649
7.9795703486825	0.69026811158039
7.9647305526036	0.68877946273737
7.9499458499072	0.68729749106829
7.9352159343568	0.68582226586351
7.9205405019815	0.68435385483293
7.9059192510549	0.68289232412617
7.8913518820742	0.68143773835271
7.8768380977404	0.67999016060218
7.8623776029373	0.67854965246462
7.8479701047120	0.67711627405075
7.8336153122550	0.67569008401231
7.8193129368805	0.67427113956235
7.8050626920073	0.67285949649552
7.7908642931393	0.67145520920841
7.7767174578470	0.67005833071976
7.7626219057483	0.66866891269073
7.7485773584906	0.66728700544510
7.7345835397317	0.66591265798936
7.7206401751223	0.66454591803291
7.7067469922879	0.66318683200798
7.6929037208109	0.66183544508969
7.6791100922131	0.66049180121588
7.6653658399386	0.65915594310692
7.6516706993364	0.65782791228547
7.6380244076433	0.65650774909609
7.6244267039674	0.65519549272475
7.6108773292714	0.65389118121828
7.5973760263558	0.65259485150368
7.5839225398432	0.65130653940731
7.5705166161616	0.65002627967399
7.5571580035291	0.64875410598597
7.5438464519376	0.64749005098171
7.5305817131374	0.64623414627464
7.5173635406219	0.64498642247172
7.5041916896120	0.64374690919181
7.4910659170415	0.64251563508403
7.4779859815415	0.64129262784585
7.4649516434263	0.64007791424109
7.4519626646781	0.63887152011777
7.4390188089330	0.63767347042580
7.4261198414664	0.63648378923447
7.4132655291790	0.63530249974987
7.4004556405826	0.63412962433206
7.3876899457861	0.63296518451213
7.3749682164822	0.63180920100906
7.3622902259332	0.63066169374648
7.3496557489581	0.62952268186914
7.3370645619187	0.62839218375934
7.3245164427071	0.62727021705313
7.3120111707317	0.62615679865628
7.2995485269053	0.62505194476021
7.2871282936315	0.62395567085763
7.2747502547925	0.62286799175804
7.2624141957364	0.62178892160306
7.2501199032648	0.62071847388161
7.2378671656205	0.61965666144485
7.2256557724753	0.61860349652098
7.2134855149182	0.61755899072986
7.2013561854432	0.61652315509748
7.1892675779376	0.61549600007017
7.1772194876706	0.61447753552869
7.1652117112811	0.61346777080218
7.1532440467669	0.61246671468182
7.1413162934731	0.61147437543443
7.1294282520809	0.61049076081578
7.1175797245964	0.60951587808385
7.1057705143399	0.60854973401180
7.0940004259347	0.60759233490078
7.0822692652965	0.60664368659267
7.0705768396226	0.60570379448249
7.0589229573817	0.60477266353073
7.0473074283028	0.60385029827552
7.0357300633654	0.60293670284454
7.0241906747891	0.60203188096685
7.0126890760234	0.60113583598447
7.0012250817375	0.60024857086386
6.9897985078107	0.59937008820718
6.9784091713222	0.59850039026340
6.9670568905415	0.59763947893925
6.9557414849188	0.59678735580996
6.9444627750753	0.59594402212991
6.9332205827937	0.59510947884305
6.9220147310090	0.59428372659318
6.9108450437990	0.59346676573407
6.8997113463751	0.59265859633941
6.8886134650735	0.59185921821261
6.8775512273457	0.59106863089645
6.8665244617499	0.59028683368253
6.8555329979419	0.58951382562065
6.8445766666667	0.58874960552789
6.8336552997493	0.58799417199773
6.8227687300865	0.58724752340883
6.8119167916383	0.58650965793380
6.8010993194192	0.58578057354773
6.7903161494904	0.58506026803663
6.7795671189507	0.58434873900568
6.7688520659291	0.58364598388737
6.7581708295762	0.58295199994949
6.7475232500563	0.58226678430295
6.7369091685393	0.58159033390947
6.7263284271932	0.58092264558919
6.7157808691756	0.58026371602802
6.7052663386267	0.57961354178500
6.6947846806610	0.57897211929938
6.6843357413601	0.57833944489768
6.6739193677649	0.57771551480057
6.6635354078684	0.57710032512961
6.6531837106081	0.57649387191385
6.6428641258586	0.57589615109640
6.6325765044248	0.57530715854070
6.6223206980340	0.57472689003686
6.6120965593295	0.57415534130769
6.6019039418630	0.57359250801475
6.5917427000879	0.57303838576423
6.5816126893524	0.57249297011265
6.5715137658922	0.57195625657258
6.5614457868243	0.57142824061806
6.5514086101399	0.57090891769009
6.5414020946978	0.57039828320186
6.5314261002179	0.56989633254397
6.5214804872743	0.56940306108944
6.5115651172893	0.56891846419871
6.5016798525266	0.56844253722447
6.4918245560849	0.56797527551636
6.4819990918919	0.56751667442564
6.4722033246978	0.56706672930971
6.4624371200690	0.56662543553647
6.4527003443823	0.56619278848870
6.4429928648184	0.56576878356823
6.4333145493562	0.56535341620008
6.4236652667667	0.56494668183641
6.4140448866068	0.56454857596050
6.4044532792138	0.56415909409051
6.3948903156997	0.56377823178323
6.3853558679446	0.56340598463765
6.3758498085921	0.56304234829853
6.3663720110427	0.56268731845983
6.3569223494487	0.56234089086799
6.3475006987084	0.56200306132524
6.3381069344609	0.56167382569272
6.3287409330800	0.56135317989355
6.3194025716695	0.56104111991580
6.3100917280572	0.56073764181539
6.3008082807902	0.56044274171885
6.2915521091291	0.56015641582610
6.2823230930427	0.55987866041301
6.2731211132036	0.55960947183397
6.2639460509820	0.55934884652435
6.2547977884415	0.55909678100287
6.2456762083333	0.55885327187388
6.2365811940919	0.55861831582960
6.2275126298297	0.55839190965220
6.2184704003319	0.55817405021588
6.2094543910522	0.55796473448885
6.2004644881075	0.55776395953519
6.1915005782734	0.55757172251665
6.1825625489792	0.55738802069443
6.1736502883031	0.55721285143079
6.1647636849681	0.55704621219065
6.1559026283368	0.55688810054307
6.1470670084068	0.55673851416270
6.1382567158067	0.55659745083110
6.1294716417910	0.55646490843807
6.1207116782360	0.55634088498275
6.1119767176351	0.55622537857487
6.1032666530945	0.55611838743569
6.0945813783289	0.55601990989905
6.0859207876573	0.55592994441224
6.0772847759984	0.55584848953687
6.0686732388664	0.55577554394957
6.0600860723671	0.55571110644274
6.0515231731934	0.55565517592511
6.0429844386212	0.55560775142235
6.0344697665056	0.55556883207747
6.0259790552764	0.55553841715130
6.0175122039342	0.55551650602272
6.0090691120465	0.55550309818904
6.0006496797438	0.55549819326608
5.9922538077154	0.55550179098836
5.9838813972056	0.55551389120910
5.9755323500100	0.55553449390025
5.9672065684713	0.55556359915233
5.9589039554760	0.55560120717431
5.9506244144502	0.55564731829338
5.9423678493558	0.55570193295460
5.9341341646873	0.55576505172057
5.9259232654675	0.55583667527095
5.9177350572444	0.55591680440196
5.9095694460871	0.55600544002578
5.9014263385827	0.55610258316989
5.8933056418321	0.55620823497633
5.8852072634472	0.55632239670093
5.8771311115468	0.55644506971239
5.8690770947533	0.55657625549134
5.8610451221896	0.55671595562935
5.8530351034752	0.55686417182780
5.8450469487229	0.55702090589673
5.8370805685358	0.55718615975360
5.8291358740035	0.55735993542197
5.8212127766990	0.55754223503011
5.8133111886756	0.55773306080957
5.8054310224632	0.55793241509358
5.7975721910656	0.55814030031549
5.7897346079567	0.55835671900706
5.7819181870781	0.55858167379670
5.7741228428351	0.55881516740761
5.7663484900942	0.55905720265591
5.7585950441798	0.55930778244855
5.7508624208709	0.55956690978136
5.7431505363985	0.55983458773676
5.7354593074421	0.56011081948163
5.7277886511272	0.56039560826494
5.7201384850219	0.56068895741535
5.7125087271341	0.56099087033878
5.7048992959087	0.56130135051577
5.6973101102242	0.56162040149890
5.6897410893908	0.56194802691005
5.6821921531463	0.56228423043753
5.6746632216544	0.56262901583326
5.6671542155009	0.56298238690973
5.6596650556919	0.56334434753694
5.6521956636501	0.56371490163923
5.6447459612126	0.56409405319204
5.6373158706281	0.56448180621856
5.6299053145540	0.56487816478629
5.6225142160540	0.56528313300355
5.6151424985952	0.56569671501578
5.6077900860456	0.56611891500194
5.6004569026714	0.56654973717060
5.5931428731343	0.56698918575610
5.5858479224893	0.56743726501451
5.5785719761816	0.56789397921958
5.5713149600446	0.56835933265848
5.5640768002970	0.56883332962754
5.5568574235403	0.56931597442785
5.5496567567568	0.56980727136075
5.5424747273063	0.57030722472320
5.5353112629247	0.57081583880311
5.5281662917204	0.57133311787451
5.5210397421731	0.57185906619260
5.5139315431304	0.57239368798872
5.5068416238060	0.57293698746526
5.4997699137773	0.57348896879032
5.4927163429828	0.57404963609242
5.4856808417200	0.57461899345497
5.4786633406433	0.57519704491068
5.4716637707611	0.57578379443586
5.4646820634342	0.57637924594461
5.4577181503732	0.57698340328282
5.4507719636364	0.57759627022214
5.4438434356274	0.57821785045376
5.4369324990932	0.57884814758212
5.4300390871219	0.57948716511848
5.4231631331404	0.58013490647432
5.4163045709124	0.58079137495466
5.4094633345363	0.58145657375125
5.4026393584430	0.58213050593563
5.3958325773938	0.58281317445202
5.3890429264785	0.58350458211011
5.3822703411131	0.58420473157774
5.3755147570378	0.58491362537336
5.3687761103152	0.58563126585848
5.3620543373278	0.58635765522983
5.3553493747767	0.58709279551154
5.3486611596789	0.58783668854701
5.3419896293656	0.58858933599081
5.3353347214807	0.58935073930029
5.3286963739780	0.59012089972713
5.3220745251198	0.59089981830871
5.3154691134752	0.59168749585935
5.3088800779175	0.59248393296138
5.3023073576229	0.59328912995605
5.2957508920685	0.59410308693435
5.2892106210303	0.59492580372757
5.2826864845815	0.59575727989783
5.2761784230905	0.59659751472834
5.2696863772192	0.59744650721356
5.2632102879213	0.59830425604923
5.2567500964405	0.59917075962213
5.2503057443082	0.60004601599981
5.2438771733427	0.60093002292006
5.2374643256464	0.60182277778028
5.2310671436050	0.60272427762661
5.2246855698850	0.60363451914299
5.2183195474326	0.60455349863998
5.2119690194715	0.60548121204342
5.2056339295016	0.60641765488294
5.1993142212973	0.60736282228031
5.1930098389052	0.60831670893757
5.1867207266436	0.60927930912503
5.1804468290997	0.61025061666909
5.1741880911288	0.61123062493989
5.1679444578521	0.61221932683873
5.1617158746556	0.61321671478540
5.1555022871883	0.61422278070528
5.1493036413604	0.61523751601625
5.1431198833419	0.61626091161550
5.1369509595613	0.61729295786607
5.1307968167037	0.61833364458323
5.1246574017094	0.61938296102076
5.1185326617722	0.62044089585695
5.1124225443383	0.62150743718047
5.1063269971044	0.62258257247607
5.1002459680163	0.62366628861006
5.0941794052676	0.62475857181564
5.0881272572980	0.62585940767808
5.0820894727920	0.62696878111965
5.0760660006773	0.62808667638441
5.0700567901235	0.62921307702285
5.0640617905405	0.63034796587628
5.0580809515775	0.63149132506114
5.0521142231210	0.63264313595304
5.0461615552937	0.63380337917068
5.0402228984533	0.63497203455958
5.0342982031906	0.63614908117565
5.0283874203287	0.63733449726857
5.0224905009214	0.63852826026501
5.0166073962517	0.63973034675168
5.0107380578305	0.64094073245819
5.0048824373957	0.64215939223984
4.9990404869101	0.64338630006009
4.9932121585610	0.64462142897300
4.9873974047579	0.64586475110548
4.9815961781323	0.64711623763933
4.9758084315353	0.64837585879321
4.9700341180371	0.64964358380441
4.9642731909256	0.65091938091044
4.9585256037049	0.65220321733058
4.9527913100942	0.65349505924720
4.9470702640264	0.65479487178696
4.9413624196473	0.65610261900191
4.9356677313138	0.65741826385041
4.9299861535932	0.65874176817800
4.9243176412615	0.66007309269807
4.9186621493027	0.66141219697246
4.9130196329072	0.66275903939194
4.9073900474709	0.66411357715658
4.9017733485939	0.66547576625602
4.8961694920790	0.66684556144969
4.8905784339315	0.66822291624683
4.8850001303569	0.66960778288657
4.8794345377604	0.67100011231781
4.8738816127459	0.67239985417913
4.8683413121143	0.67380695677855
4.8628135928629	0.67522136707333
4.8572984121841	0.67664303064960
4.8517957274640	0.67807189170209
4.8463054962819	0.67950789301373
4.8408276764088	0.68095097593523
4.8353622258065	0.68240108036474
