#Parameters = {thARC=0; nARC=2.5; thsub=1; p=1; nSub=1.25}
#"Wavelength / um"	"T (91) [Real Part]"
#--------------------------------------
14.989622900000	0.98765436650165
14.937342202292	0.98765999133753
14.885424925521	0.98766551206290
14.833867293419	0.98767092966312
14.782665581854	0.98767624511864
14.731816117936	0.98768145940510
14.681315279138	0.98768657349322
14.631159492435	0.98769158834887
14.581345233463	0.98769650493307
14.531869025691	0.98770132420196
14.482727439614	0.98770604710683
14.433917091960	0.98771067459414
14.385434644914	0.98771520760548
14.337276805356	0.98771964707759
14.289440324118	0.98772399394240
14.241921995249	0.98772824912696
14.194718655303	0.98773241355354
14.147827182633	0.98773648813954
14.101244496707	0.98774047379757
14.054967557431	0.98774437143539
14.008993364486	0.98774818195597
13.963318956684	0.98775190625746
13.917941411328	0.98775554523322
13.872857843591	0.98775909977180
13.828065405904	0.98776257075695
13.783561287356	0.98776595906764
13.739342713107	0.98776926557807
13.695406943810	0.98777249115763
13.651751275046	0.98777563667096
13.608373036768	0.98777870297794
13.565269592760	0.98778169093366
13.522438340099	0.98778460138848
13.479876708633	0.98778743518801
13.437582160466	0.98779019317309
13.395552189455	0.98779287617985
13.353784320713	0.98779548503968
13.312276110124	0.98779802057924
13.271025143869	0.98780048362047
13.230029037952	0.98780287498061
13.189285437747	0.98780519547218
13.148792017544	0.98780744590301
13.108546480105	0.98780962707623
13.068546556234	0.98781173979027
13.028790004346	0.98781378483892
12.989274610052	0.98781576301127
12.949998185745	0.98781767509174
12.910958570198	0.98781952186011
12.872153628167	0.98782130409149
12.833581250000	0.98782302255636
12.795239351259	0.98782467802056
12.757125872340	0.98782627124531
12.719238778108	0.98782780298718
12.681576057530	0.98782927399817
12.644135723323	0.98783068502562
12.606915811606	0.98783203681233
12.569914381551	0.98783333009647
12.533129515050	0.98783456561164
12.496559316382	0.98783574408685
12.460201911887	0.98783686624659
12.424055449648	0.98783793281073
12.388118099174	0.98783894449463
12.352388051092	0.98783990200911
12.316863516845	0.98784080606044
12.281542728390	0.98784165735036
12.246423937908	0.98784245657613
12.211505417515	0.98784320443047
12.176785458976	0.98784390160160
12.142262373431	0.98784454877327
12.107934491115	0.98784514662475
12.073800161095	0.98784569583082
12.039857751004	0.98784619706181
12.006105646776	0.98784665098360
11.972542252396	0.98784705825761
11.939165989646	0.98784741954084
11.905975297855	0.98784773548585
11.872968633663	0.98784800674081
11.840144470774	0.98784823394946
11.807501299724	0.98784841775115
11.775037627651	0.98784855878084
11.742751978065	0.98784865766911
11.710642890625	0.98784871504219
11.678708920919	0.98784873152193
11.646948640249	0.98784870772585
11.615360635413	0.98784864426710
11.583943508501	0.98784854175455
11.552695876686	0.98784840079272
11.521616372022	0.98784822198182
11.490703641242	0.98784800591778
11.459956345566	0.98784775319223
11.429373160503	0.98784746439252
11.398952775665	0.98784714010176
11.368693894577	0.98784678089876
11.338595234493	0.98784638735813
11.308655526217	0.98784596005021
11.278873513920	0.98784549954114
11.249247954972	0.98784500639284
11.219777619760	0.98784448116301
11.190461291527	0.98784392440519
11.161297766195	0.98784333666871
11.132285852209	0.98784271849874
11.103424370370	0.98784207043631
11.074712153676	0.98784139301828
11.046148047163	0.98784068677737
11.017730907755	0.98783995224220
10.989459604106	0.98783918993725
10.961333016453	0.98783840038292
10.933350036470	0.98783758409549
10.905509567115	0.98783674158720
10.877810522496	0.98783587336619
10.850251827723	0.98783497993654
10.822832418773	0.98783406179832
10.795551242348	0.98783311944754
10.768407255747	0.98783215337619
10.741399426729	0.98783116407225
10.714526733381	0.98783015201970
10.687788163993	0.98782911769856
10.661182716927	0.98782806158484
10.634709400497	0.98782698415061
10.608367232838	0.98782588586398
10.582155241793	0.98782476718913
10.556072464789	0.98782362858629
10.530117948718	0.98782247051182
10.504290749825	0.98782129341814
10.478589933590	0.98782009775380
10.453014574616	0.98781888396346
10.427563756522	0.98781765248793
10.402236571825	0.98781640376416
10.377032121841	0.98781513822525
10.351949516575	0.98781385630050
10.326987874612	0.98781255841536
10.302146323024	0.98781124499151
10.277423997257	0.98780991644682
10.252820041040	0.98780857319540
10.228333606278	0.98780721564757
10.203963852961	0.98780584420993
10.179709949066	0.98780445928531
10.155571070461	0.98780306127285
10.131546400811	0.98780165056794
10.107635131490	0.98780022756229
10.083836461487	0.98779879264393
10.060149597315	0.98779734619720
10.036573752929	0.98779588860278
10.013108149633	0.98779442023772
9.9897520159947	0.98779294147542
9.9665045877660	0.98779145268565
9.9433651077944	0.98778995423460
9.9203328259431	0.98778844648483
9.8974069990096	0.98778692979535
9.8745868906456	0.98778540452159
9.8518717712783	0.98778387101541
9.8292609180328	0.98778232962514
9.8067536146549	0.98778078069559
9.7843491514360	0.98777922456805
9.7620468251384	0.98777766158029
9.7398459389214	0.98777609206663
9.7177458022690	0.98777451635787
9.6957457309185	0.98777293478138
9.6738450467893	0.98777134766108
9.6520430779137	0.98776975531744
9.6303391583681	0.98776815806753
9.6087326282051	0.98776655622500
9.5872228333866	0.98776495010011
9.5658091257179	0.98776333999975
9.5444908627826	0.98776172622743
9.5232674078780	0.98776010908331
9.5021381299525	0.98775848886424
9.4811024035421	0.98775686586371
9.4601596087094	0.98775524037192
9.4393091309824	0.98775361267576
9.4185503612944	0.98775198305886
9.3978826959248	0.98775035180157
9.3773055364404	0.98774871918097
9.3568182896380	0.98774708547094
9.3364203674868	0.98774545094209
9.3161111870727	0.98774381586185
9.2958901705426	0.98774218049444
9.2757567450495	0.98774054510089
9.2557103426984	0.98773890993908
9.2357504004929	0.98773727526372
9.2158763602828	0.98773564132637
9.1960876687117	0.98773400837548
9.1763837771656	0.98773237665639
9.1567641417227	0.98773074641133
9.1372282231027	0.98772911787945
9.1177754866180	0.98772749129682
9.0984054021244	0.98772586689648
9.0791174439733	0.98772424490841
9.0599110909640	0.98772262555956
9.0407858262967	0.98772100907388
9.0217411375263	0.98771939567231
9.0027765165165	0.98771778557281
8.9838914593947	0.98771617899039
8.9650854665072	0.98771457613706
8.9463580423754	0.98771297722195
8.9277086956522	0.98771138245120
8.9091369390788	0.98770979202810
8.8906422894425	0.98770820615299
8.8722242675348	0.98770662502336
8.8538823981099	0.98770504883382
8.8356162098438	0.98770347777613
8.8174252352941	0.98770191203921
8.7993090108600	0.98770035180916
8.7812670767428	0.98769879726927
8.7632989769073	0.98769724860002
8.7454042590432	0.98769570597912
8.7275824745269	0.98769416958153
8.7098331783847	0.98769263957943
8.6921559292549	0.98769111614228
8.6745502893519	0.98768959943681
8.6570158244297	0.98768808962706
8.6395521037464	0.98768658687435
8.6221587000288	0.98768509133735
8.6048351894374	0.98768360317204
8.5875811515325	0.98768212253177
8.5703961692396	0.98768064956725
8.5532798288160	0.98767918442657
8.5362317198178	0.98767772725522
8.5192514350668	0.98767627819609
8.5023385706183	0.98767483738951
8.4854927257288	0.98767340497323
8.4687135028249	0.98767198108247
8.4520005074711	0.98767056584992
8.4353533483399	0.98766915940573
8.4187716371806	0.98766776187759
8.4022549887892	0.98766637339065
8.3858030209790	0.98766499406765
8.3694153545505	0.98766362402881
8.3530916132627	0.98766226339196
8.3368314238042	0.98766091227247
8.3206344157646	0.98765957078330
8.3045002216066	0.98765823903503
8.2884284766381	0.98765691713584
8.2724188189845	0.98765560519155
8.2564708895621	0.98765430330561
8.2405843320506	0.98765301157916
8.2247587928669	0.98765173011099
8.2089939211391	0.98765045899759
8.1932893686800	0.98764919833315
8.1776447899618	0.98764794820959
8.1620598420909	0.98764670871656
8.1465341847826	0.98764547994145
8.1310674803363	0.98764426196942
8.1156593936113	0.98764305488343
8.1003095920022	0.98764185876420
8.0850177454153	0.98764067369027
8.0697835262450	0.98763949973802
8.0546066093498	0.98763833698164
8.0394866720300	0.98763718549320
8.0244233940043	0.98763604534261
8.0094164573871	0.98763491659769
7.9944655466667	0.98763379932413
7.9795703486825	0.98763269358556
7.9647305526036	0.98763159944350
7.9499458499072	0.98763051695745
7.9352159343568	0.98762944618485
7.9205405019815	0.98762838718109
7.9059192510549	0.98762733999957
7.8913518820742	0.98762630469168
7.8768380977404	0.98762528130683
7.8623776029373	0.98762426989246
7.8479701047120	0.98762327049404
7.8336153122550	0.98762228315512
7.8193129368805	0.98762130791729
7.8050626920073	0.98762034482026
7.7908642931393	0.98761939390183
7.7767174578470	0.98761845519791
7.7626219057483	0.98761752874256
7.7485773584906	0.98761661456796
7.7345835397317	0.98761571270446
7.7206401751223	0.98761482318061
7.7067469922879	0.98761394602310
7.6929037208109	0.98761308125688
7.6791100922131	0.98761222890507
7.6653658399386	0.98761138898905
7.6516706993364	0.98761056152843
7.6380244076433	0.98760974654112
7.6244267039674	0.98760894404325
7.6108773292714	0.98760815404928
7.5973760263558	0.98760737657197
7.5839225398432	0.98760661162239
7.5705166161616	0.98760585920994
7.5571580035291	0.98760511934239
7.5438464519376	0.98760439202586
7.5305817131374	0.98760367726484
7.5173635406219	0.98760297506221
7.5041916896120	0.98760228541928
7.4910659170415	0.98760160833576
7.4779859815415	0.98760094380978
7.4649516434263	0.98760029183796
7.4519626646781	0.98759965241535
7.4390188089330	0.98759902553548
7.4261198414664	0.98759841119039
7.4132655291790	0.98759780937059
7.4004556405826	0.98759722006516
7.3876899457861	0.98759664326166
7.3749682164822	0.98759607894624
7.3622902259332	0.98759552710359
7.3496557489581	0.98759498771698
7.3370645619187	0.98759446076827
7.3245164427071	0.98759394623793
7.3120111707317	0.98759344410503
7.2995485269053	0.98759295434729
7.2871282936315	0.98759247694108
7.2747502547925	0.98759201186141
7.2624141957364	0.98759155908197
7.2501199032648	0.98759111857515
7.2378671656205	0.98759069031204
7.2256557724753	0.98759027426242
7.2134855149182	0.98758987039483
7.2013561854432	0.98758947867653
7.1892675779376	0.98758909907356
7.1772194876706	0.98758873155071
7.1652117112811	0.98758837607156
7.1532440467669	0.98758803259849
7.1413162934731	0.98758770109270
7.1294282520809	0.98758738151420
7.1175797245964	0.98758707382184
7.1057705143399	0.98758677797333
7.0940004259347	0.98758649392525
7.0822692652965	0.98758622163304
7.0705768396226	0.98758596105106
7.0589229573817	0.98758571213255
7.0473074283028	0.98758547482969
7.0357300633654	0.98758524909358
7.0241906747891	0.98758503487427
7.0126890760234	0.98758483212078
7.0012250817375	0.98758464078108
6.9897985078107	0.98758446080216
6.9784091713222	0.98758429212998
6.9670568905415	0.98758413470952
6.9557414849188	0.98758398848480
6.9444627750753	0.98758385339887
6.9332205827937	0.98758372939383
6.9220147310090	0.98758361641084
6.9108450437990	0.98758351439016
6.8997113463751	0.98758342327113
6.8886134650735	0.98758334299218
6.8775512273457	0.98758327349088
6.8665244617499	0.98758321470393
6.8555329979419	0.98758316656715
6.8445766666667	0.98758312901555
6.8336552997493	0.98758310198328
6.8227687300865	0.98758308540368
6.8119167916383	0.98758307920931
6.8010993194192	0.98758308333189
6.7903161494904	0.98758309770241
6.7795671189507	0.98758312225106
6.7688520659291	0.98758315690728
6.7581708295762	0.98758320159979
6.7475232500563	0.98758325625656
6.7369091685393	0.98758332080484
6.7263284271932	0.98758339517119
6.7157808691756	0.98758347928148
6.7052663386267	0.98758357306088
6.6947846806610	0.98758367643391
6.6843357413601	0.98758378932445
6.6739193677649	0.98758391165569
6.6635354078684	0.98758404335025
6.6531837106081	0.98758418433008
6.6428641258586	0.98758433451656
6.6325765044248	0.98758449383046
6.6223206980340	0.98758466219197
6.6120965593295	0.98758483952071
6.6019039418630	0.98758502573576
6.5917427000879	0.98758522075562
6.5816126893524	0.98758542449829
6.5715137658922	0.98758563688123
6.5614457868243	0.98758585782140
6.5514086101399	0.98758608723526
6.5414020946978	0.98758632503878
6.5314261002179	0.98758657114746
6.5214804872743	0.98758682547633
6.5115651172893	0.98758708793999
6.5016798525266	0.98758735845257
6.4918245560849	0.98758763692779
6.4819990918919	0.98758792327897
6.4722033246978	0.98758821741899
6.4624371200690	0.98758851926037
6.4527003443823	0.98758882871522
6.4429928648184	0.98758914569530
6.4333145493562	0.98758947011200
6.4236652667667	0.98758980187636
6.4140448866068	0.98759014089911
6.4044532792138	0.98759048709062
6.3948903156997	0.98759084036096
6.3853558679446	0.98759120061990
6.3758498085921	0.98759156777691
6.3663720110427	0.98759194174120
6.3569223494487	0.98759232242167
6.3475006987084	0.98759270972701
6.3381069344609	0.98759310356561
6.3287409330800	0.98759350384567
6.3194025716695	0.98759391047514
6.3100917280572	0.98759432336174
6.3008082807902	0.98759474241302
6.2915521091291	0.98759516753631
6.2823230930427	0.98759559863875
6.2731211132036	0.98759603562734
6.2639460509820	0.98759647840888
6.2547977884415	0.98759692689004
6.2456762083333	0.98759738097734
6.2365811940919	0.98759784057717
6.2275126298297	0.98759830559579
6.2184704003319	0.98759877593936
6.2094543910522	0.98759925151394
6.2004644881075	0.98759973222549
6.1915005782734	0.98760021797990
6.1825625489792	0.98760070868297
6.1736502883031	0.98760120424045
6.1647636849681	0.98760170455806
6.1559026283368	0.98760220954144
6.1470670084068	0.98760271909623
6.1382567158067	0.98760323312804
6.1294716417910	0.98760375154245
6.1207116782360	0.98760427424507
6.1119767176351	0.98760480114149
6.1032666530945	0.98760533213734
6.0945813783289	0.98760586713826
6.0859207876573	0.98760640604993
6.0772847759984	0.98760694877808
6.0686732388664	0.98760749522849
6.0600860723671	0.98760804530702
6.0515231731934	0.98760859891959
6.0429844386212	0.98760915597219
6.0344697665056	0.98760971637094
6.0259790552764	0.98761028002202
6.0175122039342	0.98761084683174
6.0090691120465	0.98761141670654
6.0006496797438	0.98761198955297
5.9922538077154	0.98761256527773
5.9838813972056	0.98761314378766
5.9755323500100	0.98761372498975
5.9672065684713	0.98761430879116
5.9589039554760	0.98761489509923
5.9506244144502	0.98761548382147
5.9423678493558	0.98761607486558
5.9341341646873	0.98761666813947
5.9259232654675	0.98761726355123
5.9177350572444	0.98761786100920
5.9095694460871	0.98761846042193
5.9014263385827	0.98761906169818
5.8933056418321	0.98761966474698
5.8852072634472	0.98762026947759
5.8771311115468	0.98762087579954
5.8690770947533	0.98762148362262
5.8610451221896	0.98762209285687
5.8530351034752	0.98762270341266
5.8450469487229	0.98762331520060
5.8370805685358	0.98762392813162
5.8291358740035	0.98762454211694
5.8212127766990	0.98762515706812
5.8133111886756	0.98762577289700
5.8054310224632	0.98762638951578
5.7975721910656	0.98762700683697
5.7897346079567	0.98762762477345
5.7819181870781	0.98762824323842
5.7741228428351	0.98762886214546
5.7663484900942	0.98762948140850
5.7585950441798	0.98763010094185
5.7508624208709	0.98763072066018
5.7431505363985	0.98763134047858
5.7354593074421	0.98763196031251
5.7277886511272	0.98763258007783
5.7201384850219	0.98763319969081
5.7125087271341	0.98763381906815
5.7048992959087	0.98763443812693
5.6973101102242	0.98763505678471
5.6897410893908	0.98763567495944
5.6821921531463	0.98763629256953
5.6746632216544	0.98763690953385
5.6671542155009	0.98763752577171
5.6596650556919	0.98763814120287
5.6521956636501	0.98763875574758
5.6447459612126	0.98763936932655
5.6373158706281	0.98763998186097
5.6299053145540	0.98764059327252
5.6225142160540	0.98764120348337
5.6151424985952	0.98764181241620
5.6077900860456	0.98764241999417
5.6004569026714	0.98764302614097
5.5931428731343	0.98764363078081
5.5858479224893	0.98764423383840
5.5785719761816	0.98764483523901
5.5713149600446	0.98764543490841
5.5640768002970	0.98764603277293
5.5568574235403	0.98764662875944
5.5496567567568	0.98764722279537
5.5424747273063	0.98764781480870
5.5353112629247	0.98764840472796
5.5281662917204	0.98764899248226
5.5210397421731	0.98764957800129
5.5139315431304	0.98765016121529
5.5068416238060	0.98765074205513
5.4997699137773	0.98765132045221
5.4927163429828	0.98765189633858
5.4856808417200	0.98765246964684
5.4786633406433	0.98765304031022
5.4716637707611	0.98765360826257
5.4646820634342	0.98765417343831
5.4577181503732	0.98765473577253
5.4507719636364	0.98765529520089
5.4438434356274	0.98765585165973
5.4369324990932	0.98765640508597
5.4300390871219	0.98765695541721
5.4231631331404	0.98765750259167
5.4163045709124	0.98765804654821
5.4094633345363	0.98765858722635
5.4026393584430	0.98765912456625
5.3958325773938	0.98765965850876
5.3890429264785	0.98766018899535
5.3822703411131	0.98766071596818
5.3755147570378	0.98766123937008
5.3687761103152	0.98766175914455
5.3620543373278	0.98766227523576
5.3553493747767	0.98766278758858
5.3486611596789	0.98766329614854
5.3419896293656	0.98766380086188
5.3353347214807	0.98766430167552
5.3286963739780	0.98766479853709
5.3220745251198	0.98766529139491
5.3154691134752	0.98766578019799
5.3088800779175	0.98766626489608
5.3023073576229	0.98766674543961
5.2957508920685	0.98766722177973
5.2892106210303	0.98766769386831
5.2826864845815	0.98766816165794
5.2761784230905	0.98766862510193
5.2696863772192	0.98766908415431
5.2632102879213	0.98766953876984
5.2567500964405	0.98766998890402
5.2503057443082	0.98767043451307
5.2438771733427	0.98767087555396
5.2374643256464	0.98767131198439
5.2310671436050	0.98767174376279
5.2246855698850	0.98767217084836
5.2183195474326	0.98767259320102
5.2119690194715	0.98767301078146
5.2056339295016	0.98767342355111
5.1993142212973	0.98767383147215
5.1930098389052	0.98767423450753
5.1867207266436	0.98767463262093
5.1804468290997	0.98767502577682
5.1741880911288	0.98767541394042
5.1679444578521	0.98767579707769
5.1617158746556	0.98767617515540
5.1555022871883	0.98767654814105
5.1493036413604	0.98767691600293
5.1431198833419	0.98767727871008
5.1369509595613	0.98767763623232
5.1307968167037	0.98767798854026
5.1246574017094	0.98767833560525
5.1185326617722	0.98767867739946
5.1124225443383	0.98767901389580
5.1063269971044	0.98767934506796
5.1002459680163	0.98767967089044
5.0941794052676	0.98767999133850
5.0881272572980	0.98768030638817
5.0820894727920	0.98768061601629
5.0760660006773	0.98768092020046
5.0700567901235	0.98768121891908
5.0640617905405	0.98768151215132
5.0580809515775	0.98768179987715
5.0521142231210	0.98768208207732
5.0461615552937	0.98768235873337
5.0402228984533	0.98768262982762
5.0342982031906	0.98768289534319
5.0283874203287	0.98768315526398
5.0224905009214	0.98768340957467
5.0166073962517	0.98768365826075
5.0107380578305	0.98768390130848
5.0048824373957	0.98768413870492
4.9990404869101	0.98768437043791
4.9932121585610	0.98768459649609
4.9873974047579	0.98768481686888
4.9815961781323	0.98768503154649
4.9758084315353	0.98768524051992
4.9700341180371	0.98768544378096
4.9642731909256	0.98768564132219
4.9585256037049	0.98768583313696
4.9527913100942	0.98768601921943
4.9470702640264	0.98768619956453
4.9413624196473	0.98768637416798
4.9356677313138	0.98768654302628
4.9299861535932	0.98768670613674
4.9243176412615	0.98768686349741
4.9186621493027	0.98768701510716
4.9130196329072	0.98768716096562
4.9073900474709	0.98768730107320
4.9017733485939	0.98768743543110
4.8961694920790	0.98768756404130
4.8905784339315	0.98768768690653
4.8850001303569	0.98768780403034
4.8794345377604	0.98768791541701
4.8738816127459	0.98768802107161
4.8683413121143	0.98768812100000
4.8628135928629	0.98768821520877
4.8572984121841	0.98768830370531
4.8517957274640	0.98768838649776
4.8463054962819	0.98768846359504
4.8408276764088	0.98768853500680
4.8353622258065	0.98768860074349
