#Parameters = {thARC=0; nARC=2.75; thsub=1; p=1; nSub=1.25}
#"Wavelength / um"	"T (97) [Real Part]"
#--------------------------------------
14.989622900000	0.98765436650082
14.937342202292	0.98765999133671
14.885424925521	0.98766551206208
14.833867293419	0.98767092966228
14.782665581854	0.98767624511781
14.731816117936	0.98768145940427
14.681315279138	0.98768657349238
14.631159492435	0.98769158834803
14.581345233463	0.98769650493223
14.531869025691	0.98770132420112
14.482727439614	0.98770604710599
14.433917091960	0.98771067459330
14.385434644914	0.98771520760463
14.337276805356	0.98771964707674
14.289440324118	0.98772399394155
14.241921995249	0.98772824912611
14.194718655303	0.98773241355269
14.147827182633	0.98773648813869
14.101244496707	0.98774047379671
14.054967557431	0.98774437143453
14.008993364486	0.98774818195511
13.963318956684	0.98775190625660
13.917941411328	0.98775554523236
13.872857843591	0.98775909977093
13.828065405904	0.98776257075608
13.783561287356	0.98776595906677
13.739342713107	0.98776926557720
13.695406943810	0.98777249115676
13.651751275046	0.98777563667009
13.608373036768	0.98777870297706
13.565269592760	0.98778169093278
13.522438340099	0.98778460138760
13.479876708633	0.98778743518713
13.437582160466	0.98779019317221
13.395552189455	0.98779287617897
13.353784320713	0.98779548503880
13.312276110124	0.98779802057835
13.271025143869	0.98780048361959
13.230029037952	0.98780287497973
13.189285437747	0.98780519547129
13.148792017544	0.98780744590212
13.108546480105	0.98780962707533
13.068546556234	0.98781173978938
13.028790004346	0.98781378483803
12.989274610052	0.98781576301037
12.949998185745	0.98781767509084
12.910958570198	0.98781952185921
12.872153628167	0.98782130409059
12.833581250000	0.98782302255546
12.795239351259	0.98782467801966
12.757125872340	0.98782627124440
12.719238778108	0.98782780298628
12.681576057530	0.98782927399726
12.644135723323	0.98783068502472
12.606915811606	0.98783203681142
12.569914381551	0.98783333009556
12.533129515050	0.98783456561072
12.496559316382	0.98783574408594
12.460201911887	0.98783686624567
12.424055449648	0.98783793280981
12.388118099174	0.98783894449371
12.352388051092	0.98783990200819
12.316863516845	0.98784080605952
12.281542728390	0.98784165734944
12.246423937908	0.98784245657521
12.211505417515	0.98784320442954
12.176785458976	0.98784390160067
12.142262373431	0.98784454877235
12.107934491115	0.98784514662383
12.073800161095	0.98784569582989
12.039857751004	0.98784619706088
12.006105646776	0.98784665098267
11.972542252396	0.98784705825668
11.939165989646	0.98784741953990
11.905975297855	0.98784773548492
11.872968633663	0.98784800673988
11.840144470774	0.98784823394852
11.807501299724	0.98784841775021
11.775037627651	0.98784855877990
11.742751978065	0.98784865766817
11.710642890625	0.98784871504125
11.678708920919	0.98784873152099
11.646948640249	0.98784870772490
11.615360635413	0.98784864426616
11.583943508501	0.98784854175361
11.552695876686	0.98784840079177
11.521616372022	0.98784822198087
11.490703641242	0.98784800591683
11.459956345566	0.98784775319128
11.429373160503	0.98784746439157
11.398952775665	0.98784714010080
11.368693894577	0.98784678089781
11.338595234493	0.98784638735717
11.308655526217	0.98784596004926
11.278873513920	0.98784549954019
11.249247954972	0.98784500639188
11.219777619760	0.98784448116205
11.190461291527	0.98784392440423
11.161297766195	0.98784333666774
11.132285852209	0.98784271849778
11.103424370370	0.98784207043535
11.074712153676	0.98784139301731
11.046148047163	0.98784068677640
11.017730907755	0.98783995224123
10.989459604106	0.98783918993628
10.961333016453	0.98783840038195
10.933350036470	0.98783758409452
10.905509567115	0.98783674158623
10.877810522496	0.98783587336521
10.850251827723	0.98783497993557
10.822832418773	0.98783406179735
10.795551242348	0.98783311944657
10.768407255747	0.98783215337521
10.741399426729	0.98783116407127
10.714526733381	0.98783015201873
10.687788163993	0.98782911769758
10.661182716927	0.98782806158386
10.634709400497	0.98782698414963
10.608367232838	0.98782588586300
10.582155241793	0.98782476718814
10.556072464789	0.98782362858531
10.530117948718	0.98782247051084
10.504290749825	0.98782129341716
10.478589933590	0.98782009775281
10.453014574616	0.98781888396248
10.427563756522	0.98781765248694
10.402236571825	0.98781640376317
10.377032121841	0.98781513822426
10.351949516575	0.98781385629950
10.326987874612	0.98781255841437
10.302146323024	0.98781124499052
10.277423997257	0.98780991644583
10.252820041040	0.98780857319440
10.228333606278	0.98780721564657
10.203963852961	0.98780584420893
10.179709949066	0.98780445928431
10.155571070461	0.98780306127185
10.131546400811	0.98780165056693
10.107635131490	0.98780022756129
10.083836461487	0.98779879264293
10.060149597315	0.98779734619619
10.036573752929	0.98779588860178
10.013108149633	0.98779442023672
9.9897520159947	0.98779294147441
9.9665045877660	0.98779145268464
9.9433651077944	0.98778995423359
9.9203328259431	0.98778844648382
9.8974069990096	0.98778692979434
9.8745868906456	0.98778540452058
9.8518717712783	0.98778387101440
9.8292609180328	0.98778232962413
9.8067536146549	0.98778078069458
9.7843491514360	0.98777922456703
9.7620468251384	0.98777766157928
9.7398459389214	0.98777609206561
9.7177458022690	0.98777451635685
9.6957457309185	0.98777293478036
9.6738450467893	0.98777134766006
9.6520430779137	0.98776975531642
9.6303391583681	0.98776815806651
9.6087326282051	0.98776655622398
9.5872228333866	0.98776495009909
9.5658091257179	0.98776333999872
9.5444908627826	0.98776172622640
9.5232674078780	0.98776010908229
9.5021381299525	0.98775848886321
9.4811024035421	0.98775686586268
9.4601596087094	0.98775524037089
9.4393091309824	0.98775361267473
9.4185503612944	0.98775198305783
9.3978826959248	0.98775035180053
9.3773055364404	0.98774871917994
9.3568182896380	0.98774708546990
9.3364203674868	0.98774545094106
9.3161111870727	0.98774381586082
9.2958901705426	0.98774218049341
9.2757567450495	0.98774054509986
9.2557103426984	0.98773890993804
9.2357504004929	0.98773727526268
9.2158763602828	0.98773564132533
9.1960876687117	0.98773400837444
9.1763837771656	0.98773237665535
9.1567641417227	0.98773074641029
9.1372282231027	0.98772911787840
9.1177754866180	0.98772749129578
9.0984054021244	0.98772586689544
9.0791174439733	0.98772424490737
9.0599110909640	0.98772262555851
9.0407858262967	0.98772100907283
9.0217411375263	0.98771939567126
9.0027765165165	0.98771778557176
8.9838914593947	0.98771617898934
8.9650854665072	0.98771457613601
8.9463580423754	0.98771297722090
8.9277086956522	0.98771138245015
8.9091369390788	0.98770979202704
8.8906422894425	0.98770820615193
8.8722242675348	0.98770662502230
8.8538823981099	0.98770504883276
8.8356162098438	0.98770347777507
8.8174252352941	0.98770191203816
8.7993090108600	0.98770035180811
8.7812670767428	0.98769879726821
8.7632989769073	0.98769724859896
8.7454042590432	0.98769570597806
8.7275824745269	0.98769416958047
8.7098331783847	0.98769263957837
8.6921559292549	0.98769111614121
8.6745502893519	0.98768959943575
8.6570158244297	0.98768808962599
8.6395521037464	0.98768658687329
8.6221587000288	0.98768509133628
8.6048351894374	0.98768360317097
8.5875811515325	0.98768212253070
8.5703961692396	0.98768064956618
8.5532798288160	0.98767918442550
8.5362317198178	0.98767772725415
8.5192514350668	0.98767627819502
8.5023385706183	0.98767483738844
8.4854927257288	0.98767340497216
8.4687135028249	0.98767198108140
8.4520005074711	0.98767056584884
8.4353533483399	0.98766915940466
8.4187716371806	0.98766776187651
8.4022549887892	0.98766637338958
8.3858030209790	0.98766499406657
8.3694153545505	0.98766362402773
8.3530916132627	0.98766226339088
8.3368314238042	0.98766091227138
8.3206344157646	0.98765957078222
8.3045002216066	0.98765823903395
8.2884284766381	0.98765691713476
8.2724188189845	0.98765560519046
8.2564708895621	0.98765430330453
8.2405843320506	0.98765301157807
8.2247587928669	0.98765173010990
8.2089939211391	0.98765045899650
8.1932893686800	0.98764919833206
8.1776447899618	0.98764794820850
8.1620598420909	0.98764670871546
8.1465341847826	0.98764547994035
8.1310674803363	0.98764426196833
8.1156593936113	0.98764305488234
8.1003095920022	0.98764185876310
8.0850177454153	0.98764067368918
8.0697835262450	0.98763949973692
8.0546066093498	0.98763833698054
8.0394866720300	0.98763718549210
8.0244233940043	0.98763604534151
8.0094164573871	0.98763491659659
7.9944655466667	0.98763379932303
7.9795703486825	0.98763269358446
7.9647305526036	0.98763159944240
7.9499458499072	0.98763051695635
7.9352159343568	0.98762944618374
7.9205405019815	0.98762838717998
7.9059192510549	0.98762733999846
7.8913518820742	0.98762630469057
7.8768380977404	0.98762528130573
7.8623776029373	0.98762426989135
7.8479701047120	0.98762327049293
7.8336153122550	0.98762228315401
7.8193129368805	0.98762130791618
7.8050626920073	0.98762034481915
7.7908642931393	0.98761939390072
7.7767174578470	0.98761845519680
7.7626219057483	0.98761752874144
7.7485773584906	0.98761661456684
7.7345835397317	0.98761571270335
7.7206401751223	0.98761482317949
7.7067469922879	0.98761394602199
7.6929037208109	0.98761308125576
7.6791100922131	0.98761222890395
7.6653658399386	0.98761138898793
7.6516706993364	0.98761056152731
7.6380244076433	0.98760974653999
7.6244267039674	0.98760894404212
7.6108773292714	0.98760815404816
7.5973760263558	0.98760737657084
7.5839225398432	0.98760661162126
7.5705166161616	0.98760585920882
7.5571580035291	0.98760511934127
7.5438464519376	0.98760439202473
7.5305817131374	0.98760367726371
7.5173635406219	0.98760297506108
7.5041916896120	0.98760228541815
7.4910659170415	0.98760160833463
7.4779859815415	0.98760094380865
7.4649516434263	0.98760029183683
7.4519626646781	0.98759965241422
7.4390188089330	0.98759902553435
7.4261198414664	0.98759841118925
7.4132655291790	0.98759780936946
7.4004556405826	0.98759722006402
7.3876899457861	0.98759664326053
7.3749682164822	0.98759607894510
7.3622902259332	0.98759552710245
7.3496557489581	0.98759498771584
7.3370645619187	0.98759446076713
7.3245164427071	0.98759394623678
7.3120111707317	0.98759344410388
7.2995485269053	0.98759295434615
7.2871282936315	0.98759247693993
7.2747502547925	0.98759201186026
7.2624141957364	0.98759155908082
7.2501199032648	0.98759111857401
7.2378671656205	0.98759069031089
7.2256557724753	0.98759027426127
7.2134855149182	0.98758987039368
7.2013561854432	0.98758947867538
7.1892675779376	0.98758909907241
7.1772194876706	0.98758873154955
7.1652117112811	0.98758837607041
7.1532440467669	0.98758803259734
7.1413162934731	0.98758770109155
7.1294282520809	0.98758738151304
7.1175797245964	0.98758707382068
7.1057705143399	0.98758677797217
7.0940004259347	0.98758649392409
7.0822692652965	0.98758622163188
7.0705768396226	0.98758596104990
7.0589229573817	0.98758571213139
7.0473074283028	0.98758547482853
7.0357300633654	0.98758524909242
7.0241906747891	0.98758503487311
7.0126890760234	0.98758483211961
7.0012250817375	0.98758464077992
6.9897985078107	0.98758446080099
6.9784091713222	0.98758429212881
6.9670568905415	0.98758413470835
6.9557414849188	0.98758398848363
6.9444627750753	0.98758385339770
6.9332205827937	0.98758372939266
6.9220147310090	0.98758361640967
6.9108450437990	0.98758351438899
6.8997113463751	0.98758342326996
6.8886134650735	0.98758334299101
6.8775512273457	0.98758327348971
6.8665244617499	0.98758321470276
6.8555329979419	0.98758316656598
6.8445766666667	0.98758312901437
6.8336552997493	0.98758310198210
6.8227687300865	0.98758308540251
6.8119167916383	0.98758307920813
6.8010993194192	0.98758308333072
6.7903161494904	0.98758309770123
6.7795671189507	0.98758312224988
6.7688520659291	0.98758315690610
6.7581708295762	0.98758320159861
6.7475232500563	0.98758325625538
6.7369091685393	0.98758332080366
6.7263284271932	0.98758339517001
6.7157808691756	0.98758347928029
6.7052663386267	0.98758357305969
6.6947846806610	0.98758367643273
6.6843357413601	0.98758378932326
6.6739193677649	0.98758391165451
6.6635354078684	0.98758404334906
6.6531837106081	0.98758418432890
6.6428641258586	0.98758433451537
6.6325765044248	0.98758449382927
6.6223206980340	0.98758466219078
6.6120965593295	0.98758483951952
6.6019039418630	0.98758502573456
6.5917427000879	0.98758522075443
6.5816126893524	0.98758542449709
6.5715137658922	0.98758563688004
6.5614457868243	0.98758585782021
6.5514086101399	0.98758608723406
6.5414020946978	0.98758632503758
6.5314261002179	0.98758657114626
6.5214804872743	0.98758682547513
6.5115651172893	0.98758708793879
6.5016798525266	0.98758735845137
6.4918245560849	0.98758763692660
6.4819990918919	0.98758792327777
6.4722033246978	0.98758821741779
6.4624371200690	0.98758851925917
6.4527003443823	0.98758882871402
6.4429928648184	0.98758914569409
6.4333145493562	0.98758947011079
6.4236652667667	0.98758980187516
6.4140448866068	0.98759014089791
6.4044532792138	0.98759048708941
6.3948903156997	0.98759084035975
6.3853558679446	0.98759120061869
6.3758498085921	0.98759156777571
6.3663720110427	0.98759194173999
6.3569223494487	0.98759232242047
6.3475006987084	0.98759270972580
6.3381069344609	0.98759310356440
6.3287409330800	0.98759350384446
6.3194025716695	0.98759391047393
6.3100917280572	0.98759432336053
6.3008082807902	0.98759474241181
6.2915521091291	0.98759516753509
6.2823230930427	0.98759559863754
6.2731211132036	0.98759603562613
6.2639460509820	0.98759647840767
6.2547977884415	0.98759692688883
6.2456762083333	0.98759738097613
6.2365811940919	0.98759784057595
6.2275126298297	0.98759830559457
6.2184704003319	0.98759877593815
6.2094543910522	0.98759925151273
6.2004644881075	0.98759973222427
6.1915005782734	0.98760021797868
6.1825625489792	0.98760070868175
6.1736502883031	0.98760120423923
6.1647636849681	0.98760170455684
6.1559026283368	0.98760220954022
6.1470670084068	0.98760271909501
6.1382567158067	0.98760323312682
6.1294716417910	0.98760375154123
6.1207116782360	0.98760427424385
6.1119767176351	0.98760480114027
6.1032666530945	0.98760533213612
6.0945813783289	0.98760586713703
6.0859207876573	0.98760640604870
6.0772847759984	0.98760694877685
6.0686732388664	0.98760749522727
6.0600860723671	0.98760804530580
6.0515231731934	0.98760859891836
6.0429844386212	0.98760915597097
6.0344697665056	0.98760971636971
6.0259790552764	0.98761028002079
6.0175122039342	0.98761084683051
6.0090691120465	0.98761141670531
6.0006496797438	0.98761198955174
5.9922538077154	0.98761256527650
5.9838813972056	0.98761314378643
5.9755323500100	0.98761372498852
5.9672065684713	0.98761430878993
5.9589039554760	0.98761489509800
5.9506244144502	0.98761548382024
5.9423678493558	0.98761607486435
5.9341341646873	0.98761666813824
5.9259232654675	0.98761726355000
5.9177350572444	0.98761786100797
5.9095694460871	0.98761846042069
5.9014263385827	0.98761906169694
5.8933056418321	0.98761966474574
5.8852072634472	0.98762026947635
5.8771311115468	0.98762087579830
5.8690770947533	0.98762148362138
5.8610451221896	0.98762209285564
5.8530351034752	0.98762270341142
5.8450469487229	0.98762331519936
5.8370805685358	0.98762392813038
5.8291358740035	0.98762454211570
5.8212127766990	0.98762515706688
5.8133111886756	0.98762577289576
5.8054310224632	0.98762638951454
5.7975721910656	0.98762700683573
5.7897346079567	0.98762762477221
5.7819181870781	0.98762824323718
5.7741228428351	0.98762886214422
5.7663484900942	0.98762948140726
5.7585950441798	0.98763010094061
5.7508624208709	0.98763072065894
5.7431505363985	0.98763134047734
5.7354593074421	0.98763196031127
5.7277886511272	0.98763258007659
5.7201384850219	0.98763319968957
5.7125087271341	0.98763381906690
5.7048992959087	0.98763443812569
5.6973101102242	0.98763505678346
5.6897410893908	0.98763567495819
5.6821921531463	0.98763629256829
5.6746632216544	0.98763690953261
5.6671542155009	0.98763752577046
5.6596650556919	0.98763814120163
5.6521956636501	0.98763875574633
5.6447459612126	0.98763936932530
5.6373158706281	0.98763998185972
5.6299053145540	0.98764059327127
5.6225142160540	0.98764120348212
5.6151424985952	0.98764181241495
5.6077900860456	0.98764241999292
5.6004569026714	0.98764302613972
5.5931428731343	0.98764363077956
5.5858479224893	0.98764423383716
5.5785719761816	0.98764483523776
5.5713149600446	0.98764543490716
5.5640768002970	0.98764603277168
5.5568574235403	0.98764662875819
5.5496567567568	0.98764722279412
5.5424747273063	0.98764781480745
5.5353112629247	0.98764840472671
5.5281662917204	0.98764899248101
5.5210397421731	0.98764957800004
5.5139315431304	0.98765016121404
5.5068416238060	0.98765074205388
5.4997699137773	0.98765132045096
5.4927163429828	0.98765189633732
5.4856808417200	0.98765246964559
5.4786633406433	0.98765304030897
5.4716637707611	0.98765360826132
5.4646820634342	0.98765417343706
5.4577181503732	0.98765473577127
5.4507719636364	0.98765529519964
5.4438434356274	0.98765585165847
5.4369324990932	0.98765640508472
5.4300390871219	0.98765695541596
5.4231631331404	0.98765750259042
5.4163045709124	0.98765804654696
5.4094633345363	0.98765858722509
5.4026393584430	0.98765912456500
5.3958325773938	0.98765965850750
5.3890429264785	0.98766018899409
5.3822703411131	0.98766071596693
5.3755147570378	0.98766123936883
5.3687761103152	0.98766175914330
5.3620543373278	0.98766227523451
5.3553493747767	0.98766278758732
5.3486611596789	0.98766329614728
5.3419896293656	0.98766380086062
5.3353347214807	0.98766430167427
5.3286963739780	0.98766479853584
5.3220745251198	0.98766529139365
5.3154691134752	0.98766578019674
5.3088800779175	0.98766626489483
5.3023073576229	0.98766674543835
5.2957508920685	0.98766722177848
5.2892106210303	0.98766769386706
5.2826864845815	0.98766816165669
5.2761784230905	0.98766862510067
5.2696863772192	0.98766908415305
5.2632102879213	0.98766953876859
5.2567500964405	0.98766998890277
5.2503057443082	0.98767043451182
5.2438771733427	0.98767087555271
5.2374643256464	0.98767131198313
5.2310671436050	0.98767174376153
5.2246855698850	0.98767217084710
5.2183195474326	0.98767259319976
5.2119690194715	0.98767301078020
5.2056339295016	0.98767342354985
5.1993142212973	0.98767383147089
5.1930098389052	0.98767423450627
5.1867207266436	0.98767463261967
5.1804468290997	0.98767502577557
5.1741880911288	0.98767541393916
5.1679444578521	0.98767579707644
5.1617158746556	0.98767617515415
5.1555022871883	0.98767654813980
5.1493036413604	0.98767691600167
5.1431198833419	0.98767727870882
5.1369509595613	0.98767763623106
5.1307968167037	0.98767798853900
5.1246574017094	0.98767833560400
5.1185326617722	0.98767867739820
5.1124225443383	0.98767901389454
5.1063269971044	0.98767934506671
5.1002459680163	0.98767967088919
5.0941794052676	0.98767999133724
5.0881272572980	0.98768030638692
5.0820894727920	0.98768061601504
5.0760660006773	0.98768092019921
5.0700567901235	0.98768121891782
5.0640617905405	0.98768151215006
5.0580809515775	0.98768179987589
5.0521142231210	0.98768208207607
5.0461615552937	0.98768235873212
5.0402228984533	0.98768262982637
5.0342982031906	0.98768289534194
5.0283874203287	0.98768315526272
5.0224905009214	0.98768340957342
5.0166073962517	0.98768365825949
5.0107380578305	0.98768390130722
5.0048824373957	0.98768413870366
4.9990404869101	0.98768437043666
4.9932121585610	0.98768459649484
4.9873974047579	0.98768481686763
4.9815961781323	0.98768503154524
4.9758084315353	0.98768524051867
4.9700341180371	0.98768544377971
4.9642731909256	0.98768564132094
4.9585256037049	0.98768583313571
4.9527913100942	0.98768601921818
4.9470702640264	0.98768619956327
4.9413624196473	0.98768637416672
4.9356677313138	0.98768654302503
4.9299861535932	0.98768670613549
4.9243176412615	0.98768686349616
4.9186621493027	0.98768701510591
4.9130196329072	0.98768716096436
4.9073900474709	0.98768730107195
4.9017733485939	0.98768743542985
4.8961694920790	0.98768756404004
4.8905784339315	0.98768768690528
4.8850001303569	0.98768780402909
4.8794345377604	0.98768791541576
4.8738816127459	0.98768802107036
4.8683413121143	0.98768812099875
4.8628135928629	0.98768821520752
4.8572984121841	0.98768830370406
4.8517957274640	0.98768838649651
4.8463054962819	0.98768846359379
4.8408276764088	0.98768853500555
4.8353622258065	0.98768860074224
