#Parameters = {thARC=0.6; nARC=1.25; thsub=1; p=1; nSub=1.5}
#"Wavelength / um"	"T (118) [Real Part]"
#---------------------------------------
14.008993364486	0.96555593507534
13.963318956684	0.96563980077885
13.917941411328	0.96572263728052
13.872857843591	0.96580445332001
13.828065405904	0.96588525762292
13.783561287356	0.96596505890044
13.739342713107	0.96604386584894
13.695406943810	0.96612168714957
13.651751275046	0.96619853146792
13.608373036768	0.96627440745359
13.565269592760	0.96634932373986
13.522438340099	0.96642328894330
13.479876708633	0.96649631166338
13.437582160466	0.96656840048215
13.395552189455	0.96663956396384
13.353784320713	0.96670981065449
13.312276110124	0.96677914908164
13.271025143869	0.96684758775396
13.230029037952	0.96691513516085
13.189285437747	0.96698179977218
13.148792017544	0.96704759003787
13.108546480105	0.96711251438760
13.068546556234	0.96717658123044
13.028790004346	0.96723979895454
12.989274610052	0.96730217592679
12.949998185745	0.96736372049248
12.910958570198	0.96742444097500
12.872153628167	0.96748434567550
12.833581250000	0.96754344287259
12.795239351259	0.96760174082201
12.757125872340	0.96765924775632
12.719238778108	0.96771597188461
12.681576057530	0.96777192139218
12.644135723323	0.96782710444022
12.606915811606	0.96788152916557
12.569914381551	0.96793520368036
12.533129515050	0.96798813607177
12.496559316382	0.96804033440170
12.460201911887	0.96809180670654
12.424055449648	0.96814256099680
12.388118099174	0.96819260525695
12.352388051092	0.96824194744503
12.316863516845	0.96829059549246
12.281542728390	0.96833855730373
12.246423937908	0.96838584075615
12.211505417515	0.96843245369958
12.176785458976	0.96847840395620
12.142262373431	0.96852369932020
12.107934491115	0.96856834755757
12.073800161095	0.96861235640586
12.039857751004	0.96865573357390
12.006105646776	0.96869848674156
11.972542252396	0.96874062355956
11.939165989646	0.96878215164917
11.905975297855	0.96882307860201
11.872968633663	0.96886341197984
11.840144470774	0.96890315931428
11.807501299724	0.96894232810664
11.775037627651	0.96898092582768
11.742751978065	0.96901895991738
11.710642890625	0.96905643778476
11.678708920919	0.96909336680761
11.646948640249	0.96912975433239
11.615360635413	0.96916560767388
11.583943508501	0.96920093411512
11.552695876686	0.96923574090714
11.521616372022	0.96927003526875
11.490703641242	0.96930382438641
11.459956345566	0.96933711541398
11.429373160503	0.96936991547260
11.398952775665	0.96940223165045
11.368693894577	0.96943407100258
11.338595234493	0.96946544055078
11.308655526217	0.96949634728336
11.278873513920	0.96952679815500
11.249247954972	0.96955680008659
11.219777619760	0.96958635996503
11.190461291527	0.96961548464314
11.161297766195	0.96964418093943
11.132285852209	0.96967245563799
11.103424370370	0.96970031548832
11.074712153676	0.96972776720520
11.046148047163	0.96975481746851
11.017730907755	0.96978147292314
10.989459604106	0.96980774017881
10.961333016453	0.96983362580994
10.933350036470	0.96985913635553
10.905509567115	0.96988427831903
10.877810522496	0.96990905816819
10.850251827723	0.96993348233496
10.822832418773	0.96995755721536
10.795551242348	0.96998128916937
10.768407255747	0.97000468452079
10.741399426729	0.97002774955716
10.714526733381	0.97005049052961
10.687788163993	0.97007291365280
10.661182716927	0.97009502510478
10.634709400497	0.97011683102691
10.608367232838	0.97013833752373
10.582155241793	0.97015955066291
10.556072464789	0.97018047647511
10.530117948718	0.97020112095394
10.504290749825	0.97022149005582
10.478589933590	0.97024158969992
10.453014574616	0.97026142576810
10.427563756522	0.97028100410477
10.402236571825	0.97030033051690
10.377032121841	0.97031941077385
10.351949516575	0.97033825060736
10.326987874612	0.97035685571149
10.302146323024	0.97037523174249
10.277423997257	0.97039338431881
10.252820041040	0.97041131902098
10.228333606278	0.97042904139160
10.203963852961	0.97044655693524
10.179709949066	0.97046387111841
10.155571070461	0.97048098936952
10.131546400811	0.97049791707880
10.107635131490	0.97051465959829
10.083836461487	0.97053122224177
10.060149597315	0.97054761028472
10.036573752929	0.97056382896431
10.013108149633	0.97057988347932
9.9897520159947	0.97059577899015
9.9665045877660	0.97061152061876
9.9433651077944	0.97062711344864
9.9203328259431	0.97064256252482
9.8974069990096	0.97065787285380
9.8745868906456	0.97067304940355
9.8518717712783	0.97068809710350
9.8292609180328	0.97070302084450
9.8067536146549	0.97071782547882
9.7843491514360	0.97073251582015
9.7620468251384	0.97074709664355
9.7398459389214	0.97076157268548
9.7177458022690	0.97077594864380
9.6957457309185	0.97079022917772
9.6738450467893	0.97080441890784
9.6520430779137	0.97081852241614
9.6303391583681	0.97083254424599
9.6087326282051	0.97084648890211
9.5872228333866	0.97086036085067
9.5658091257179	0.97087416451920
9.5444908627826	0.97088790429667
9.5232674078780	0.97090158453348
9.5021381299525	0.97091520954146
9.4811024035421	0.97092878359393
9.4601596087094	0.97094231092566
9.4393091309824	0.97095579573296
9.4185503612944	0.97096924217366
9.3978826959248	0.97098265436715
9.3773055364404	0.97099603639439
9.3568182896380	0.97100939229799
9.3364203674868	0.97102272608216
9.3161111870727	0.97103604171285
9.2958901705426	0.97104934311768
9.2757567450495	0.97106263418605
9.2557103426984	0.97107591876915
9.2357504004929	0.97108920068002
9.2158763602828	0.97110248369357
9.1960876687117	0.97111577154664
9.1763837771656	0.97112906793805
9.1567641417227	0.97114237652864
9.1372282231027	0.97115570094132
9.1177754866180	0.97116904476115
9.0984054021244	0.97118241153535
9.0791174439733	0.97119580477340
9.0599110909640	0.97120922794704
9.0407858262967	0.97122268449042
9.0217411375263	0.97123617780007
9.0027765165165	0.97124971123502
8.9838914593947	0.97126328811684
8.9650854665072	0.97127691172972
8.9463580423754	0.97129058532053
8.9277086956522	0.97130431209889
8.9091369390788	0.97131809523725
8.8906422894425	0.97133193787096
8.8722242675348	0.97134584309832
8.8538823981099	0.97135981398072
8.8356162098438	0.97137385354264
8.8174252352941	0.97138796477178
8.7993090108600	0.97140215061914
8.7812670767428	0.97141641399906
8.7632989769073	0.97143075778938
8.7454042590432	0.97144518483143
8.7275824745269	0.97145969793021
8.7098331783847	0.97147429985441
8.6921559292549	0.97148899333655
8.6745502893519	0.97150378107302
8.6570158244297	0.97151866572422
8.6395521037464	0.97153364991464
8.6221587000288	0.97154873623293
8.6048351894374	0.97156392723205
8.5875811515325	0.97157922542931
8.5703961692396	0.97159463330652
8.5532798288160	0.97161015331005
8.5362317198178	0.97162578785096
8.5192514350668	0.97164153930510
8.5023385706183	0.97165741001322
8.4854927257288	0.97167340228104
8.4687135028249	0.97168951837940
8.4520005074711	0.97170576054438
8.4353533483399	0.97172213097734
8.4187716371806	0.97173863184512
8.4022549887892	0.97175526528009
8.3858030209790	0.97177203338028
8.3694153545505	0.97178893820950
8.3530916132627	0.97180598179749
8.3368314238042	0.97182316613995
8.3206344157646	0.97184049319877
8.3045002216066	0.97185796490204
8.2884284766381	0.97187558314427
8.2724188189845	0.97189334978645
8.2564708895621	0.97191126665617
8.2405843320506	0.97192933554780
8.2247587928669	0.97194755822257
8.2089939211391	0.97196593640869
8.1932893686800	0.97198447180152
8.1776447899618	0.97200316606366
8.1620598420909	0.97202202082510
8.1465341847826	0.97204103768335
8.1310674803363	0.97206021820355
8.1156593936113	0.97207956391865
8.1003095920022	0.97209907632949
8.0850177454153	0.97211875690497
8.0697835262450	0.97213860708216
8.0546066093498	0.97215862826649
8.0394866720300	0.97217882183181
8.0244233940043	0.97219918912060
8.0094164573871	0.97221973144405
