#Parameters = {thARC=0.8; nARC=1.5; thsub=1; p=1; nSub=1.5}
#"Wavelength / um"	"T (125) [Real Part]"
#---------------------------------------
14.008993364486	0.95999911887104
13.963318956684	0.95999908946548
13.917941411328	0.95999906154282
13.872857843591	0.95999903507985
13.828065405904	0.95999901005354
13.783561287356	0.95999898644096
13.739342713107	0.95999896421932
13.695406943810	0.95999894336601
13.651751275046	0.95999892385850
13.608373036768	0.95999890567445
13.565269592760	0.95999888879162
13.522438340099	0.95999887318794
13.479876708633	0.95999885884146
13.437582160466	0.95999884573038
13.395552189455	0.95999883383304
13.353784320713	0.95999882312793
13.312276110124	0.95999881359366
13.271025143869	0.95999880520900
13.230029037952	0.95999879795286
13.189285437747	0.95999879180429
13.148792017544	0.95999878674247
13.108546480105	0.95999878274676
13.068546556234	0.95999877979663
13.028790004346	0.95999877787170
12.989274610052	0.95999877695173
12.949998185745	0.95999877701666
12.910958570198	0.95999877804652
12.872153628167	0.95999878002153
12.833581250000	0.95999878292203
12.795239351259	0.95999878672851
12.757125872340	0.95999879142162
12.719238778108	0.95999879698214
12.681576057530	0.95999880339099
12.644135723323	0.95999881062925
12.606915811606	0.95999881867815
12.569914381551	0.95999882751906
12.533129515050	0.95999883713349
12.496559316382	0.95999884750310
12.460201911887	0.95999885860971
12.424055449648	0.95999887043526
12.388118099174	0.95999888296187
12.352388051092	0.95999889617178
12.316863516845	0.95999891004739
12.281542728390	0.95999892457125
12.246423937908	0.95999893972605
12.211505417515	0.95999895549462
12.176785458976	0.95999897185997
12.142262373431	0.95999898880522
12.107934491115	0.95999900631366
12.073800161095	0.95999902436871
12.039857751004	0.95999904295397
12.006105646776	0.95999906205314
11.972542252396	0.95999908165011
11.939165989646	0.95999910172891
11.905975297855	0.95999912227369
11.872968633663	0.95999914326878
11.840144470774	0.95999916469864
11.807501299724	0.95999918654788
11.775037627651	0.95999920880127
11.742751978065	0.95999923144372
11.710642890625	0.95999925446027
11.678708920919	0.95999927783613
11.646948640249	0.95999930155666
11.615360635413	0.95999932560734
11.583943508501	0.95999934997383
11.552695876686	0.95999937464191
11.521616372022	0.95999939959752
11.490703641242	0.95999942482675
11.459956345566	0.95999945031583
11.429373160503	0.95999947605114
11.398952775665	0.95999950201920
11.368693894577	0.95999952820669
11.338595234493	0.95999955460041
11.308655526217	0.95999958118734
11.278873513920	0.95999960795457
11.249247954972	0.95999963488938
11.219777619760	0.95999966197914
11.190461291527	0.95999968921142
11.161297766195	0.95999971657389
11.132285852209	0.95999974405439
11.103424370370	0.95999977164090
11.074712153676	0.95999979932154
11.046148047163	0.95999982708458
11.017730907755	0.95999985491842
10.989459604106	0.95999988281163
10.961333016453	0.95999991075289
10.933350036470	0.95999993873105
10.905509567115	0.95999996673509
10.877810522496	0.95999999475412
10.850251827723	0.96000002277743
10.822832418773	0.96000005079441
10.795551242348	0.96000007879463
10.768407255747	0.96000010676775
10.741399426729	0.96000013470363
10.714526733381	0.96000016259222
10.687788163993	0.96000019042365
10.661182716927	0.96000021818815
10.634709400497	0.96000024587614
10.608367232838	0.96000027347812
10.582155241793	0.96000030098478
10.556072464789	0.96000032838692
10.530117948718	0.96000035567548
10.504290749825	0.96000038284155
10.478589933590	0.96000040987635
10.453014574616	0.96000043677123
10.427563756522	0.96000046351769
10.402236571825	0.96000049010735
10.377032121841	0.96000051653198
10.351949516575	0.96000054278348
10.326987874612	0.96000056885388
10.302146323024	0.96000059473534
10.277423997257	0.96000062042018
10.252820041040	0.96000064590083
10.228333606278	0.96000067116985
10.203963852961	0.96000069621995
10.179709949066	0.96000072104396
10.155571070461	0.96000074563484
10.131546400811	0.96000076998568
10.107635131490	0.96000079408972
10.083836461487	0.96000081794030
10.060149597315	0.96000084153092
10.036573752929	0.96000086485518
10.013108149633	0.96000088790684
9.9897520159947	0.96000091067975
9.9665045877660	0.96000093316792
9.9433651077944	0.96000095536547
9.9203328259431	0.96000097726666
9.8974069990096	0.96000099886585
9.8745868906456	0.96000102015756
9.8518717712783	0.96000104113641
9.8292609180328	0.96000106179715
9.8067536146549	0.96000108213466
9.7843491514360	0.96000110214393
9.7620468251384	0.96000112182009
9.7398459389214	0.96000114115838
9.7177458022690	0.96000116015416
9.6957457309185	0.96000117880292
9.6738450467893	0.96000119710026
9.6520430779137	0.96000121504192
9.6303391583681	0.96000123262372
9.6087326282051	0.96000124984164
9.5872228333866	0.96000126669176
9.5658091257179	0.96000128317027
9.5444908627826	0.96000129927349
9.5232674078780	0.96000131499784
9.5021381299525	0.96000133033988
9.4811024035421	0.96000134529626
9.4601596087094	0.96000135986376
9.4393091309824	0.96000137403926
9.4185503612944	0.96000138781977
9.3978826959248	0.96000140120240
9.3773055364404	0.96000141418437
9.3568182896380	0.96000142676302
9.3364203674868	0.96000143893580
9.3161111870727	0.96000145070025
9.2958901705426	0.96000146205405
9.2757567450495	0.96000147299497
9.2557103426984	0.96000148352088
9.2357504004929	0.96000149362977
9.2158763602828	0.96000150331974
9.1960876687117	0.96000151258898
9.1763837771656	0.96000152143580
9.1567641417227	0.96000152985860
9.1372282231027	0.96000153785590
9.1177754866180	0.96000154542631
9.0984054021244	0.96000155256854
9.0791174439733	0.96000155928141
9.0599110909640	0.96000156556384
9.0407858262967	0.96000157141485
9.0217411375263	0.96000157683355
9.0027765165165	0.96000158181916
8.9838914593947	0.96000158637099
8.9650854665072	0.96000159048845
8.9463580423754	0.96000159417105
8.9277086956522	0.96000159741839
8.9091369390788	0.96000160023017
8.8906422894425	0.96000160260617
8.8722242675348	0.96000160454628
8.8538823981099	0.96000160605049
8.8356162098438	0.96000160711884
8.8174252352941	0.96000160775152
8.7993090108600	0.96000160794876
8.7812670767428	0.96000160771091
8.7632989769073	0.96000160703839
8.7454042590432	0.96000160593173
8.7275824745269	0.96000160439152
8.7098331783847	0.96000160241846
8.6921559292549	0.96000160001333
8.6745502893519	0.96000159717698
8.6570158244297	0.96000159391036
8.6395521037464	0.96000159021450
8.6221587000288	0.96000158609052
8.6048351894374	0.96000158153961
8.5875811515325	0.96000157656304
8.5703961692396	0.96000157116217
8.5532798288160	0.96000156533844
8.5362317198178	0.96000155909336
8.5192514350668	0.96000155242851
8.5023385706183	0.96000154534559
8.4854927257288	0.96000153784632
8.4687135028249	0.96000152993253
8.4520005074711	0.96000152160612
8.4353533483399	0.96000151286906
8.4187716371806	0.96000150372339
8.4022549887892	0.96000149417124
8.3858030209790	0.96000148421478
8.3694153545505	0.96000147385628
8.3530916132627	0.96000146309808
8.3368314238042	0.96000145194256
8.3206344157646	0.96000144039220
8.3045002216066	0.96000142844953
8.2884284766381	0.96000141611715
8.2724188189845	0.96000140339774
8.2564708895621	0.96000139029402
8.2405843320506	0.96000137680880
8.2247587928669	0.96000136294494
8.2089939211391	0.96000134870536
8.1932893686800	0.96000133409305
8.1776447899618	0.96000131911106
8.1620598420909	0.96000130376250
8.1465341847826	0.96000128805054
8.1310674803363	0.96000127197839
8.1156593936113	0.96000125554936
8.1003095920022	0.96000123876678
8.0850177454153	0.96000122163405
8.0697835262450	0.96000120415463
8.0546066093498	0.96000118633202
8.0394866720300	0.96000116816979
8.0244233940043	0.96000114967156
8.0094164573871	0.96000113084099
