#Parameters = {thARC=0.2; nARC=2.75; thsub=1; p=1; nSub=1.5}
#"Wavelength / um"	"T (152) [Real Part]"
#---------------------------------------
14.008993364486	0.92055063927111
13.963318956684	0.92034211940277
13.917941411328	0.92013213451890
13.872857843591	0.91992069442017
13.828065405904	0.91970780888511
13.783561287356	0.91949348766975
13.739342713107	0.91927774050728
13.695406943810	0.91906057710772
13.651751275046	0.91884200715756
13.608373036768	0.91862204031947
13.565269592760	0.91840068623192
13.522438340099	0.91817795450890
13.479876708633	0.91795385473959
13.437582160466	0.91772839648803
13.395552189455	0.91750158929283
13.353784320713	0.91727344266685
13.312276110124	0.91704396609691
13.271025143869	0.91681316904348
13.230029037952	0.91658106094039
13.189285437747	0.91634765119453
13.148792017544	0.91611294918560
13.108546480105	0.91587696426578
13.068546556234	0.91563970575949
13.028790004346	0.91540118296308
12.989274610052	0.91516140514462
12.949998185745	0.91492038154356
12.910958570198	0.91467812137052
12.872153628167	0.91443463380702
12.833581250000	0.91418992800522
12.795239351259	0.91394401308767
12.757125872340	0.91369689814709
12.719238778108	0.91344859224608
12.681576057530	0.91319910441693
12.644135723323	0.91294844366136
12.606915811606	0.91269661895029
12.569914381551	0.91244363922363
12.533129515050	0.91218951339006
12.496559316382	0.91193425032679
12.460201911887	0.91167785887935
12.424055449648	0.91142034786141
12.388118099174	0.91116172605453
12.352388051092	0.91090200220799
12.316863516845	0.91064118503859
12.281542728390	0.91037928323043
12.246423937908	0.91011630543475
12.211505417515	0.90985226026971
12.176785458976	0.90958715632025
12.142262373431	0.90932100213787
12.107934491115	0.90905380624048
12.073800161095	0.90878557711221
12.039857751004	0.90851632320324
12.006105646776	0.90824605292968
11.972542252396	0.90797477467333
11.939165989646	0.90770249678160
11.905975297855	0.90742922756732
11.872968633663	0.90715497530857
11.840144470774	0.90687974824859
11.807501299724	0.90660355459558
11.775037627651	0.90632640252259
11.742751978065	0.90604830016738
11.710642890625	0.90576925563229
11.678708920919	0.90548927698411
11.646948640249	0.90520837225396
11.615360635413	0.90492654943713
11.583943508501	0.90464381649304
11.552695876686	0.90436018134503
11.521616372022	0.90407565188034
11.490703641242	0.90379023594993
11.459956345566	0.90350394136841
11.429373160503	0.90321677591395
11.398952775665	0.90292874732815
11.368693894577	0.90263986331597
11.338595234493	0.90235013154561
11.308655526217	0.90205955964846
11.278873513920	0.90176815521899
11.249247954972	0.90147592581469
11.219777619760	0.90118287895595
11.190461291527	0.90088902212602
11.161297766195	0.90059436277095
11.132285852209	0.90029890829947
11.103424370370	0.90000266608298
11.074712153676	0.89970564345545
11.046148047163	0.89940784771338
11.017730907755	0.89910928611571
10.989459604106	0.89880996588383
10.961333016453	0.89850989420148
10.933350036470	0.89820907821470
10.905509567115	0.89790752503181
10.877810522496	0.89760524172337
10.850251827723	0.89730223532211
10.822832418773	0.89699851282292
10.795551242348	0.89669408118283
10.768407255747	0.89638894732093
10.741399426729	0.89608311811840
10.714526733381	0.89577660041846
10.687788163993	0.89546940102632
10.661182716927	0.89516152670921
10.634709400497	0.89485298419636
10.608367232838	0.89454378017894
10.582155241793	0.89423392131010
10.556072464789	0.89392341420492
10.530117948718	0.89361226544045
10.504290749825	0.89330048155567
10.478589933590	0.89298806905151
10.453014574616	0.89267503439084
10.427563756522	0.89236138399848
10.402236571825	0.89204712426123
10.377032121841	0.89173226152781
10.351949516575	0.89141680210899
10.326987874612	0.89110075227746
10.302146323024	0.89078411826800
10.277423997257	0.89046690627736
10.252820041040	0.89014912246438
10.228333606278	0.88983077294998
10.203963852961	0.88951186381717
10.179709949066	0.88919240111112
10.155571070461	0.88887239083915
10.131546400811	0.88855183897080
10.107635131490	0.88823075143782
10.083836461487	0.88790913413428
10.060149597315	0.88758699291654
10.036573752929	0.88726433360332
10.013108149633	0.88694116197576
9.9897520159947	0.88661748377744
9.9665045877660	0.88629330471446
9.9433651077944	0.88596863045546
9.9203328259431	0.88564346663168
9.8974069990096	0.88531781883706
9.8745868906456	0.88499169262822
9.8518717712783	0.88466509352458
9.8292609180328	0.88433802700840
9.8067536146549	0.88401049852484
9.7843491514360	0.88368251348205
9.7620468251384	0.88335407725119
9.7398459389214	0.88302519516656
9.7177458022690	0.88269587252560
9.6957457309185	0.88236611458905
9.6738450467893	0.88203592658094
9.6520430779137	0.88170531368872
9.6303391583681	0.88137428106332
9.6087326282051	0.88104283381924
9.5872228333866	0.88071097703460
9.5658091257179	0.88037871575128
9.5444908627826	0.88004605497496
9.5232674078780	0.87971299967521
9.5021381299525	0.87937955478562
9.4811024035421	0.87904572520384
9.4601596087094	0.87871151579169
9.4393091309824	0.87837693137527
9.4185503612944	0.87804197674502
9.3978826959248	0.87770665665588
9.3773055364404	0.87737097582730
9.3568182896380	0.87703493894341
9.3364203674868	0.87669855065310
9.3161111870727	0.87636181557012
9.2958901705426	0.87602473827318
9.2757567450495	0.87568732330607
9.2557103426984	0.87534957517774
9.2357504004929	0.87501149836244
9.2158763602828	0.87467309729983
9.1960876687117	0.87433437639505
9.1763837771656	0.87399534001889
9.1567641417227	0.87365599250784
9.1372282231027	0.87331633816428
9.1177754866180	0.87297638125653
9.0984054021244	0.87263612601899
9.0791174439733	0.87229557665228
9.0599110909640	0.87195473732333
9.0407858262967	0.87161361216554
9.0217411375263	0.87127220527884
9.0027765165165	0.87093052072987
8.9838914593947	0.87058856255209
8.9650854665072	0.87024633474590
8.9463580423754	0.86990384127876
8.9277086956522	0.86956108608533
8.9091369390788	0.86921807306761
8.8906422894425	0.86887480609503
8.8722242675348	0.86853128900463
8.8538823981099	0.86818752560116
8.8356162098438	0.86784351965723
8.8174252352941	0.86749927491343
8.7993090108600	0.86715479507849
8.7812670767428	0.86681008382936
8.7632989769073	0.86646514481143
8.7454042590432	0.86611998163859
8.7275824745269	0.86577459789344
8.7098331783847	0.86542899712735
8.6921559292549	0.86508318286068
8.6745502893519	0.86473715858285
8.6570158244297	0.86439092775255
8.6395521037464	0.86404449379783
8.6221587000288	0.86369786011626
8.6048351894374	0.86335103007510
8.5875811515325	0.86300400701140
8.5703961692396	0.86265679423218
8.5532798288160	0.86230939501457
8.5362317198178	0.86196181260594
8.5192514350668	0.86161405022408
8.5023385706183	0.86126611105731
8.4854927257288	0.86091799826466
8.4687135028249	0.86056971497603
8.4520005074711	0.86022126429227
8.4353533483399	0.85987264928544
8.4187716371806	0.85952387299886
8.4022549887892	0.85917493844733
8.3858030209790	0.85882584861724
8.3694153545505	0.85847660646678
8.3530916132627	0.85812721492601
8.3368314238042	0.85777767689708
8.3206344157646	0.85742799525439
8.3045002216066	0.85707817284468
8.2884284766381	0.85672821248726
8.2724188189845	0.85637811697413
8.2564708895621	0.85602788907012
8.2405843320506	0.85567753151309
8.2247587928669	0.85532704701406
8.2089939211391	0.85497643825738
8.1932893686800	0.85462570790087
8.1776447899618	0.85427485857600
8.1620598420909	0.85392389288804
8.1465341847826	0.85357281341623
8.1310674803363	0.85322162271391
8.1156593936113	0.85287032330872
8.1003095920022	0.85251891770273
8.0850177454153	0.85216740837262
8.0697835262450	0.85181579776982
8.0546066093498	0.85146408832071
8.0394866720300	0.85111228242671
8.0244233940043	0.85076038246454
8.0094164573871	0.85040839078630
