#Parameters = {thARC=0.8; nARC=1; thsub=1; p=1; nSub=1.75}
#"Wavelength / um"	"T (167) [Real Part]"
#---------------------------------------
14.008993364486	0.92561875852030
13.963318956684	0.92561873247994
13.917941411328	0.92561870776769
13.872857843591	0.92561868436416
13.828065405904	0.92561866225005
13.783561287356	0.92561864140620
13.739342713107	0.92561862181357
13.695406943810	0.92561860345323
13.651751275046	0.92561858630638
13.608373036768	0.92561857035433
13.565269592760	0.92561855557854
13.522438340099	0.92561854196055
13.479876708633	0.92561852948206
13.437582160466	0.92561851812486
13.395552189455	0.92561850787088
13.353784320713	0.92561849870217
13.312276110124	0.92561849060090
13.271025143869	0.92561848354937
13.230029037952	0.92561847752999
13.189285437747	0.92561847252529
13.148792017544	0.92561846851793
13.108546480105	0.92561846549071
13.068546556234	0.92561846342651
13.028790004346	0.92561846230838
12.989274610052	0.92561846211946
12.949998185745	0.92561846284303
12.910958570198	0.92561846446247
12.872153628167	0.92561846696132
12.833581250000	0.92561847032321
12.795239351259	0.92561847453191
12.757125872340	0.92561847957130
12.719238778108	0.92561848542540
12.681576057530	0.92561849207835
12.644135723323	0.92561849951440
12.606915811606	0.92561850771792
12.569914381551	0.92561851667343
12.533129515050	0.92561852636555
12.496559316382	0.92561853677903
12.460201911887	0.92561854789874
12.424055449648	0.92561855970968
12.388118099174	0.92561857219697
12.352388051092	0.92561858534584
12.316863516845	0.92561859914166
12.281542728390	0.92561861356992
12.246423937908	0.92561862861622
12.211505417515	0.92561864426630
12.176785458976	0.92561866050601
12.142262373431	0.92561867732132
12.107934491115	0.92561869469834
12.073800161095	0.92561871262328
12.039857751004	0.92561873108249
12.006105646776	0.92561875006243
11.972542252396	0.92561876954968
11.939165989646	0.92561878953096
11.905975297855	0.92561880999310
11.872968633663	0.92561883092303
11.840144470774	0.92561885230784
11.807501299724	0.92561887413472
11.775037627651	0.92561889639098
11.742751978065	0.92561891906406
11.710642890625	0.92561894214150
11.678708920919	0.92561896561099
11.646948640249	0.92561898946031
11.615360635413	0.92561901367739
11.583943508501	0.92561903825026
11.552695876686	0.92561906316707
11.521616372022	0.92561908841610
11.490703641242	0.92561911398574
11.459956345566	0.92561913986450
11.429373160503	0.92561916604101
11.398952775665	0.92561919250402
11.368693894577	0.92561921924240
11.338595234493	0.92561924624513
11.308655526217	0.92561927350131
11.278873513920	0.92561930100017
11.249247954972	0.92561932873104
11.219777619760	0.92561935668338
11.190461291527	0.92561938484675
11.161297766195	0.92561941321085
11.132285852209	0.92561944176548
11.103424370370	0.92561947050055
11.074712153676	0.92561949940610
11.046148047163	0.92561952847229
11.017730907755	0.92561955768937
10.989459604106	0.92561958704773
10.961333016453	0.92561961653785
10.933350036470	0.92561964615035
10.905509567115	0.92561967587595
10.877810522496	0.92561970570548
10.850251827723	0.92561973562990
10.822832418773	0.92561976564025
10.795551242348	0.92561979572772
10.768407255747	0.92561982588358
10.741399426729	0.92561985609924
10.714526733381	0.92561988636621
10.687788163993	0.92561991667609
10.661182716927	0.92561994702062
10.634709400497	0.92561997739164
10.608367232838	0.92562000778109
10.582155241793	0.92562003818105
10.556072464789	0.92562006858366
10.530117948718	0.92562009898122
10.504290749825	0.92562012936610
10.478589933590	0.92562015973079
10.453014574616	0.92562019006790
10.427563756522	0.92562022037013
10.402236571825	0.92562025063029
10.377032121841	0.92562028084132
10.351949516575	0.92562031099622
10.326987874612	0.92562034108813
10.302146323024	0.92562037111028
10.277423997257	0.92562040105603
10.252820041040	0.92562043091880
10.228333606278	0.92562046069216
10.203963852961	0.92562049036974
10.179709949066	0.92562051994531
10.155571070461	0.92562054941272
10.131546400811	0.92562057876592
10.107635131490	0.92562060799899
10.083836461487	0.92562063710607
10.060149597315	0.92562066608144
10.036573752929	0.92562069491944
10.013108149633	0.92562072361455
9.9897520159947	0.92562075216131
9.9665045877660	0.92562078055440
9.9433651077944	0.92562080878856
9.9203328259431	0.92562083685865
9.8974069990096	0.92562086475963
9.8745868906456	0.92562089248653
9.8518717712783	0.92562092003450
9.8292609180328	0.92562094739879
9.8067536146549	0.92562097457473
9.7843491514360	0.92562100155774
9.7620468251384	0.92562102834335
9.7398459389214	0.92562105492718
9.7177458022690	0.92562108130494
9.6957457309185	0.92562110747243
9.6738450467893	0.92562113342555
9.6520430779137	0.92562115916028
9.6303391583681	0.92562118467270
9.6087326282051	0.92562120995898
9.5872228333866	0.92562123501538
9.5658091257179	0.92562125983825
9.5444908627826	0.92562128442401
9.5232674078780	0.92562130876920
9.5021381299525	0.92562133287044
9.4811024035421	0.92562135672441
9.4601596087094	0.92562138032790
9.4393091309824	0.92562140367780
9.4185503612944	0.92562142677106
9.3978826959248	0.92562144960471
9.3773055364404	0.92562147217590
9.3568182896380	0.92562149448183
9.3364203674868	0.92562151651980
9.3161111870727	0.92562153828719
9.2958901705426	0.92562155978145
9.2757567450495	0.92562158100013
9.2557103426984	0.92562160194086
9.2357504004929	0.92562162260134
9.2158763602828	0.92562164297934
9.1960876687117	0.92562166307275
9.1763837771656	0.92562168287949
9.1567641417227	0.92562170239759
9.1372282231027	0.92562172162515
9.1177754866180	0.92562174056035
9.0984054021244	0.92562175920143
9.0791174439733	0.92562177754672
9.0599110909640	0.92562179559463
9.0407858262967	0.92562181334364
9.0217411375263	0.92562183079229
9.0027765165165	0.92562184793922
8.9838914593947	0.92562186478312
8.9650854665072	0.92562188132277
8.9463580423754	0.92562189755700
8.9277086956522	0.92562191348473
8.9091369390788	0.92562192910495
8.8906422894425	0.92562194441671
8.8722242675348	0.92562195941913
8.8538823981099	0.92562197411141
8.8356162098438	0.92562198849281
8.8174252352941	0.92562200256266
8.7993090108600	0.92562201632035
8.7812670767428	0.92562202976535
8.7632989769073	0.92562204289718
8.7454042590432	0.92562205571543
8.7275824745269	0.92562206821977
8.7098331783847	0.92562208040991
8.6921559292549	0.92562209228563
8.6745502893519	0.92562210384680
8.6570158244297	0.92562211509330
8.6395521037464	0.92562212602513
8.6221587000288	0.92562213664229
8.6048351894374	0.92562214694490
8.5875811515325	0.92562215693309
8.5703961692396	0.92562216660709
8.5532798288160	0.92562217596715
8.5362317198178	0.92562218501360
8.5192514350668	0.92562219374683
8.5023385706183	0.92562220216728
8.4854927257288	0.92562221027544
8.4687135028249	0.92562221807186
8.4520005074711	0.92562222555714
8.4353533483399	0.92562223273196
8.4187716371806	0.92562223959701
8.4022549887892	0.92562224615307
8.3858030209790	0.92562225240094
8.3694153545505	0.92562225834151
8.3530916132627	0.92562226397569
8.3368314238042	0.92562226930445
8.3206344157646	0.92562227432881
8.3045002216066	0.92562227904984
8.2884284766381	0.92562228346865
8.2724188189845	0.92562228758641
8.2564708895621	0.92562229140433
8.2405843320506	0.92562229492368
8.2247587928669	0.92562229814574
8.2089939211391	0.92562230107188
8.1932893686800	0.92562230370348
8.1776447899618	0.92562230604198
8.1620598420909	0.92562230808887
8.1465341847826	0.92562230984567
8.1310674803363	0.92562231131394
8.1156593936113	0.92562231249529
8.1003095920022	0.92562231339137
8.0850177454153	0.92562231400387
8.0697835262450	0.92562231433451
8.0546066093498	0.92562231438507
8.0394866720300	0.92562231415734
8.0244233940043	0.92562231365317
8.0094164573871	0.92562231287445
