#Parameters = {thARC=0.4; nARC=1.5; thsub=1; p=1; nSub=1}
#"Wavelength / um"	"T (16) [Real Part]"
#--------------------------------------
14.008993364486	0.98816520313299
13.963318956684	0.98810017431864
13.917941411328	0.98803467583826
13.872857843591	0.98796871060110
13.828065405904	0.98790228150535
13.783561287356	0.98783539143811
13.739342713107	0.98776804327536
13.695406943810	0.98770023988193
13.651751275046	0.98763198411148
13.608373036768	0.98756327880651
13.565269592760	0.98749412679830
13.522438340099	0.98742453090688
13.479876708633	0.98735449394108
13.437582160466	0.98728401869842
13.395552189455	0.98721310796518
13.353784320713	0.98714176451630
13.312276110124	0.98706999111543
13.271025143869	0.98699779051486
13.230029037952	0.98692516545555
13.189285437747	0.98685211866708
13.148792017544	0.98677865286766
13.108546480105	0.98670477076408
13.068546556234	0.98663047505174
13.028790004346	0.98655576841463
12.989274610052	0.98648065352526
12.949998185745	0.98640513304473
12.910958570198	0.98632920962266
12.872153628167	0.98625288589721
12.833581250000	0.98617616449506
12.795239351259	0.98609904803138
12.757125872340	0.98602153910985
12.719238778108	0.98594364032265
12.681576057530	0.98586535425043
12.644135723323	0.98578668346231
12.606915811606	0.98570763051589
12.569914381551	0.98562819795721
12.533129515050	0.98554838832079
12.496559316382	0.98546820412957
12.460201911887	0.98538764789495
12.424055449648	0.98530672211677
12.388118099174	0.98522542928328
12.352388051092	0.98514377187120
12.316863516845	0.98506175234563
12.281542728390	0.98497937316014
12.246423937908	0.98489663675668
12.211505417515	0.98481354556566
12.176785458976	0.98473010200587
12.142262373431	0.98464630848455
12.107934491115	0.98456216739735
12.073800161095	0.98447768112833
12.039857751004	0.98439285204998
12.006105646776	0.98430768252321
11.972542252396	0.98422217489734
11.939165989646	0.98413633151012
11.905975297855	0.98405015468776
11.872968633663	0.98396364674485
11.840144470774	0.98387680998444
11.807501299724	0.98378964669803
11.775037627651	0.98370215916555
11.742751978065	0.98361434965537
11.710642890625	0.98352622042433
11.678708920919	0.98343777371773
11.646948640249	0.98334901176932
11.615360635413	0.98325993680135
11.583943508501	0.98317055102452
11.552695876686	0.98308085663804
11.521616372022	0.98299085582962
11.490703641242	0.98290055077546
11.459956345566	0.98280994364028
11.429373160503	0.98271903657732
11.398952775665	0.98262783172838
11.368693894577	0.98253633122377
11.338595234493	0.98244453718237
11.308655526217	0.98235245171164
11.278873513920	0.98226007690759
11.249247954972	0.98216741485484
11.219777619760	0.98207446762660
11.190461291527	0.98198123728472
11.161297766195	0.98188772587966
11.132285852209	0.98179393545051
11.103424370370	0.98169986802504
11.074712153676	0.98160552561969
11.046148047163	0.98151091023957
11.017730907755	0.98141602387850
10.989459604106	0.98132086851902
10.961333016453	0.98122544613240
10.933350036470	0.98112975867866
10.905509567115	0.98103380810658
10.877810522496	0.98093759635374
10.850251827723	0.98084112534649
10.822832418773	0.98074439700004
10.795551242348	0.98064741321839
10.768407255747	0.98055017589445
10.741399426729	0.98045268690995
10.714526733381	0.98035494813555
10.687788163993	0.98025696143082
10.661182716927	0.98015872864424
10.634709400497	0.98006025161327
10.608367232838	0.97996153216434
10.582155241793	0.97986257211286
10.556072464789	0.97976337326328
10.530117948718	0.97966393740908
10.504290749825	0.97956426633278
10.478589933590	0.97946436180603
10.453014574616	0.97936422558953
10.427563756522	0.97926385943317
10.402236571825	0.97916326507595
10.377032121841	0.97906244424605
10.351949516575	0.97896139866087
10.326987874612	0.97886013002702
10.302146323024	0.97875864004038
10.277423997257	0.97865693038607
10.252820041040	0.97855500273855
10.228333606278	0.97845285876157
10.203963852961	0.97835050010826
10.179709949066	0.97824792842111
10.155571070461	0.97814514533202
10.131546400811	0.97804215246233
10.107635131490	0.97793895142282
10.083836461487	0.97783554381377
10.060149597315	0.97773193122497
10.036573752929	0.97762811523575
10.013108149633	0.97752409741501
9.9897520159947	0.97741987932124
9.9665045877660	0.97731546250258
9.9433651077944	0.97721084849681
9.9203328259431	0.97710603883138
9.8974069990096	0.97700103502348
9.8745868906456	0.97689583858004
9.8518717712783	0.97679045099774
9.8292609180328	0.97668487376311
9.8067536146549	0.97657910835247
9.7843491514360	0.97647315623203
9.7620468251384	0.97636701885789
9.7398459389214	0.97626069767609
9.7177458022690	0.97615419412262
9.6957457309185	0.97604750962346
9.6738450467893	0.97594064559462
9.6520430779137	0.97583360344216
9.6303391583681	0.97572638456225
9.6087326282051	0.97561899034114
9.5872228333866	0.97551142215528
9.5658091257179	0.97540368137129
9.5444908627826	0.97529576934599
9.5232674078780	0.97518768742648
9.5021381299525	0.97507943695016
9.4811024035421	0.97497101924471
9.4601596087094	0.97486243562821
9.4393091309824	0.97475368740911
9.4185503612944	0.97464477588629
9.3978826959248	0.97453570234910
9.3773055364404	0.97442646807736
9.3568182896380	0.97431707434146
9.3364203674868	0.97420752240232
9.3161111870727	0.97409781351149
9.2958901705426	0.97398794891114
9.2757567450495	0.97387792983413
9.2557103426984	0.97376775750402
9.2357504004929	0.97365743313513
9.2158763602828	0.97354695793254
9.1960876687117	0.97343633309218
9.1763837771656	0.97332555980082
9.1567641417227	0.97321463923612
9.1372282231027	0.97310357256669
9.1177754866180	0.97299236095210
9.0984054021244	0.97288100554292
9.0791174439733	0.97276950748079
9.0599110909640	0.97265786789839
9.0407858262967	0.97254608791957
9.0217411375263	0.97243416865930
9.0027765165165	0.97232211122377
8.9838914593947	0.97220991671041
8.9650854665072	0.97209758620790
8.9463580423754	0.97198512079626
8.9277086956522	0.97187252154685
8.9091369390788	0.97175978952242
8.8906422894425	0.97164692577716
8.8722242675348	0.97153393135673
8.8538823981099	0.97142080729829
8.8356162098438	0.97130755463056
8.8174252352941	0.97119417437386
8.7993090108600	0.97108066754011
8.7812670767428	0.97096703513293
8.7632989769073	0.97085327814763
8.7454042590432	0.97073939757128
8.7275824745269	0.97062539438274
8.7098331783847	0.97051126955269
8.6921559292549	0.97039702404372
8.6745502893519	0.97028265881028
8.6570158244297	0.97016817479881
8.6395521037464	0.97005357294773
8.6221587000288	0.96993885418750
8.6048351894374	0.96982401944066
8.5875811515325	0.96970906962186
8.5703961692396	0.96959400563793
8.5532798288160	0.96947882838787
8.5362317198178	0.96936353876294
8.5192514350668	0.96924813764669
8.5023385706183	0.96913262591499
8.4854927257288	0.96901700443608
8.4687135028249	0.96890127407060
8.4520005074711	0.96878543567165
8.4353533483399	0.96866949008483
8.4187716371806	0.96855343814826
8.4022549887892	0.96843728069266
8.3858030209790	0.96832101854136
8.3694153545505	0.96820465251034
8.3530916132627	0.96808818340831
8.3368314238042	0.96797161203671
8.3206344157646	0.96785493918978
8.3045002216066	0.96773816565458
8.2884284766381	0.96762129221108
8.2724188189845	0.96750431963212
8.2564708895621	0.96738724868354
8.2405843320506	0.96727008012417
8.2247587928669	0.96715281470589
8.2089939211391	0.96703545317367
8.1932893686800	0.96691799626561
8.1776447899618	0.96680044471299
8.1620598420909	0.96668279924031
8.1465341847826	0.96656506056534
8.1310674803363	0.96644722939913
8.1156593936113	0.96632930644612
8.1003095920022	0.96621129240410
8.0850177454153	0.96609318796433
8.0697835262450	0.96597499381154
8.0546066093498	0.96585671062396
8.0394866720300	0.96573833907342
8.0244233940043	0.96561987982533
8.0094164573871	0.96550133353878
