#Parameters = {thARC=0.4; nARC=1.25; thsub=1; p=1; nSub=1.75}
#"Wavelength / um"	"T (171) [Real Part]"
#---------------------------------------
14.008993364486	0.93022664051810
13.963318956684	0.93030251603938
13.917941411328	0.93037740779771
13.872857843591	0.93045132419982
13.828065405904	0.93052427363899
13.783561287356	0.93059626449469
13.739342713107	0.93066730513217
13.695406943810	0.93073740390212
13.651751275046	0.93080656914031
13.608373036768	0.93087480916723
13.565269592760	0.93094213228772
13.522438340099	0.93100854679063
13.479876708633	0.93107406094845
13.437582160466	0.93113868301701
13.395552189455	0.93120242123507
13.353784320713	0.93126528382404
13.312276110124	0.93132727898758
13.271025143869	0.93138841491134
13.230029037952	0.93144869976256
13.189285437747	0.93150814168976
13.148792017544	0.93156674882246
13.108546480105	0.93162452927078
13.068546556234	0.93168149112518
13.028790004346	0.93173764245611
12.989274610052	0.93179299131373
12.949998185745	0.93184754572756
12.910958570198	0.93190131370621
12.872153628167	0.93195430323704
12.833581250000	0.93200652228588
12.795239351259	0.93205797879675
12.757125872340	0.93210868069153
12.719238778108	0.93215863586967
12.681576057530	0.93220785220795
12.644135723323	0.93225633756011
12.606915811606	0.93230409975668
12.569914381551	0.93235114660458
12.533129515050	0.93239748588693
12.496559316382	0.93244312536276
12.460201911887	0.93248807276671
12.424055449648	0.93253233580880
12.388118099174	0.93257592217413
12.352388051092	0.93261883952267
12.316863516845	0.93266109548894
12.281542728390	0.93270269768181
12.246423937908	0.93274365368424
12.211505417515	0.93278397105299
12.176785458976	0.93282365731843
12.142262373431	0.93286271998427
12.107934491115	0.93290116652731
12.073800161095	0.93293900439725
12.039857751004	0.93297624101641
12.006105646776	0.93301288377952
11.972542252396	0.93304894005351
11.939165989646	0.93308441717726
11.905975297855	0.93311932246138
11.872968633663	0.93315366318803
11.840144470774	0.93318744661066
11.807501299724	0.93322067995384
11.775037627651	0.93325337041302
11.742751978065	0.93328552515433
11.710642890625	0.93331715131442
11.678708920919	0.93334825600020
11.646948640249	0.93337884628869
11.615360635413	0.93340892922680
11.583943508501	0.93343851183115
11.552695876686	0.93346760108791
11.521616372022	0.93349620395257
11.490703641242	0.93352432734980
11.459956345566	0.93355197817323
11.429373160503	0.93357916328533
11.398952775665	0.93360588951720
11.368693894577	0.93363216366840
11.338595234493	0.93365799250681
11.308655526217	0.93368338276846
11.278873513920	0.93370834115734
11.249247954972	0.93373287434529
11.219777619760	0.93375698897183
11.190461291527	0.93378069164397
11.161297766195	0.93380398893613
11.132285852209	0.93382688738995
11.103424370370	0.93384939351415
11.074712153676	0.93387151378441
11.046148047163	0.93389325464322
11.017730907755	0.93391462249974
10.989459604106	0.93393562372970
10.961333016453	0.93395626467523
10.933350036470	0.93397655164477
10.905509567115	0.93399649091293
10.877810522496	0.93401608872037
10.850251827723	0.93403535127369
10.822832418773	0.93405428474531
10.795551242348	0.93407289527337
10.768407255747	0.93409118896161
10.741399426729	0.93410917187926
10.714526733381	0.93412685006096
10.687788163993	0.93414422950663
10.661182716927	0.93416131618139
10.634709400497	0.93417811601548
10.608367232838	0.93419463490412
10.582155241793	0.93421087870747
10.556072464789	0.93422685325052
10.530117948718	0.93424256432300
10.504290749825	0.93425801767931
10.478589933590	0.93427321903844
10.453014574616	0.93428817408389
10.427563756522	0.93430288846359
10.402236571825	0.93431736778984
10.377032121841	0.93433161763925
10.351949516575	0.93434564355263
10.326987874612	0.93435945103497
10.302146323024	0.93437304555537
10.277423997257	0.93438643254697
10.252820041040	0.93439961740689
10.228333606278	0.93441260549620
10.203963852961	0.93442540213983
10.179709949066	0.93443801262656
10.155571070461	0.93445044220896
10.131546400811	0.93446269610333
10.107635131490	0.93447477948967
10.083836461487	0.93448669751166
10.060149597315	0.93449845527658
10.036573752929	0.93451005785530
10.013108149633	0.93452151028226
9.9897520159947	0.93453281755542
9.9665045877660	0.93454398463622
9.9433651077944	0.93455501644960
9.9203328259431	0.93456591788393
9.8974069990096	0.93457669379101
9.8745868906456	0.93458734898603
9.8518717712783	0.93459788824762
9.8292609180328	0.93460831631772
9.8067536146549	0.93461863790170
9.7843491514360	0.93462885766823
9.7620468251384	0.93463898024935
9.7398459389214	0.93464901024044
9.7177458022690	0.93465895220022
9.6957457309185	0.93466881065073
9.6738450467893	0.93467859007735
9.6520430779137	0.93468829492881
9.6303391583681	0.93469792961716
9.6087326282051	0.93470749851781
9.5872228333866	0.93471700596953
9.5658091257179	0.93472645627445
9.5444908627826	0.93473585369810
9.5232674078780	0.93474520246937
9.5021381299525	0.93475450678061
9.4811024035421	0.93476377078755
9.4601596087094	0.93477299860941
9.4393091309824	0.93478219432887
9.4185503612944	0.93479136199210
9.3978826959248	0.93480050560881
9.3773055364404	0.93480962915226
9.3568182896380	0.93481873655929
9.3364203674868	0.93482783173036
9.3161111870727	0.93483691852958
9.2958901705426	0.93484600078473
9.2757567450495	0.93485508228734
9.2557103426984	0.93486416679269
9.2357504004929	0.93487325801984
9.2158763602828	0.93488235965175
9.1960876687117	0.93489147533521
9.1763837771656	0.93490060868100
9.1567641417227	0.93490976326386
9.1372282231027	0.93491894262257
9.1177754866180	0.93492815025998
9.0984054021244	0.93493738964313
9.0791174439733	0.93494666420319
9.0599110909640	0.93495597733564
9.0407858262967	0.93496533240024
9.0217411375263	0.93497473272113
9.0027765165165	0.93498418158688
8.9838914593947	0.93499368225055
8.9650854665072	0.93500323792977
8.9463580423754	0.93501285180680
8.9277086956522	0.93502252702857
8.9091369390788	0.93503226670680
8.8906422894425	0.93504207391803
8.8722242675348	0.93505195170371
8.8538823981099	0.93506190307029
8.8356162098438	0.93507193098924
8.8174252352941	0.93508203839719
8.7993090108600	0.93509222819597
8.7812670767428	0.93510250325271
8.7632989769073	0.93511286639991
8.7454042590432	0.93512332043552
8.7275824745269	0.93513386812305
8.7098331783847	0.93514451219160
8.6921559292549	0.93515525533601
8.6745502893519	0.93516610021692
8.6570158244297	0.93517704946085
8.6395521037464	0.93518810566030
8.6221587000288	0.93519927137384
8.6048351894374	0.93521054912623
8.5875811515325	0.93522194140847
8.5703961692396	0.93523345067793
8.5532798288160	0.93524507935842
8.5362317198178	0.93525682984031
8.5192514350668	0.93526870448065
8.5023385706183	0.93528070560321
8.4854927257288	0.93529283549863
8.4687135028249	0.93530509642452
8.4520005074711	0.93531749060555
8.4353533483399	0.93533002023356
8.4187716371806	0.93534268746767
8.4022549887892	0.93535549443439
8.3858030209790	0.93536844322773
8.3694153545505	0.93538153590932
8.3530916132627	0.93539477450847
8.3368314238042	0.93540816102238
8.3206344157646	0.93542169741613
8.3045002216066	0.93543538562293
8.2884284766381	0.93544922754412
8.2724188189845	0.93546322504936
8.2564708895621	0.93547737997671
8.2405843320506	0.93549169413277
8.2247587928669	0.93550616929279
8.2089939211391	0.93552080720080
8.1932893686800	0.93553560956971
8.1776447899618	0.93555057808148
8.1620598420909	0.93556571438720
8.1465341847826	0.93558102010721
8.1310674803363	0.93559649683127
8.1156593936113	0.93561214611866
8.1003095920022	0.93562796949832
8.0850177454153	0.93564396846894
8.0697835262450	0.93566014449914
8.0546066093498	0.93567649902759
8.0394866720300	0.93569303346313
8.0244233940043	0.93570974918488
8.0094164573871	0.93572664754243
