#Parameters = {thARC=0.6; nARC=1.75; thsub=1; p=1; nSub=1.75}
#"Wavelength / um"	"T (184) [Real Part]"
#---------------------------------------
14.008993364486	0.92561854608127
13.963318956684	0.92561849645010
13.917941411328	0.92561844911769
13.872857843591	0.92561840404964
13.828065405904	0.92561836121174
13.783561287356	0.92561832056998
13.739342713107	0.92561828209053
13.695406943810	0.92561824573976
13.651751275046	0.92561821148422
13.608373036768	0.92561817929067
13.565269592760	0.92561814912604
13.522438340099	0.92561812095749
13.479876708633	0.92561809475233
13.437582160466	0.92561807047811
13.395552189455	0.92561804810255
13.353784320713	0.92561802759357
13.312276110124	0.92561800891930
13.271025143869	0.92561799204806
13.230029037952	0.92561797694838
13.189285437747	0.92561796358896
13.148792017544	0.92561795193874
13.108546480105	0.92561794196683
13.068546556234	0.92561793364257
13.028790004346	0.92561792693547
12.989274610052	0.92561792181528
12.949998185745	0.92561791825191
12.910958570198	0.92561791621552
12.872153628167	0.92561791567644
12.833581250000	0.92561791660522
12.795239351259	0.92561791897261
12.757125872340	0.92561792274958
12.719238778108	0.92561792790728
12.681576057530	0.92561793441709
12.644135723323	0.92561794225059
12.606915811606	0.92561795137956
12.569914381551	0.92561796177599
12.533129515050	0.92561797341210
12.496559316382	0.92561798626029
12.460201911887	0.92561800029319
12.424055449648	0.92561801548362
12.388118099174	0.92561803180462
12.352388051092	0.92561804922944
12.316863516845	0.92561806773154
12.281542728390	0.92561808728460
12.246423937908	0.92561810786249
12.211505417515	0.92561812943931
12.176785458976	0.92561815198935
12.142262373431	0.92561817548714
12.107934491115	0.92561819990740
12.073800161095	0.92561822522507
12.039857751004	0.92561825141529
12.006105646776	0.92561827845344
11.972542252396	0.92561830631508
11.939165989646	0.92561833497600
11.905975297855	0.92561836441220
11.872968633663	0.92561839459990
11.840144470774	0.92561842551551
11.807501299724	0.92561845713567
11.775037627651	0.92561848943724
11.742751978065	0.92561852239728
11.710642890625	0.92561855599306
11.678708920919	0.92561859020207
11.646948640249	0.92561862500202
11.615360635413	0.92561866037080
11.583943508501	0.92561869628657
11.552695876686	0.92561873272764
11.521616372022	0.92561876967259
11.490703641242	0.92561880710016
11.459956345566	0.92561884498934
11.429373160503	0.92561888331931
11.398952775665	0.92561892206949
11.368693894577	0.92561896121948
11.338595234493	0.92561900074912
11.308655526217	0.92561904063843
11.278873513920	0.92561908086767
11.249247954972	0.92561912141731
11.219777619760	0.92561916226801
11.190461291527	0.92561920340067
11.161297766195	0.92561924479636
11.132285852209	0.92561928643642
11.103424370370	0.92561932830234
11.074712153676	0.92561937037586
11.046148047163	0.92561941263891
11.017730907755	0.92561945507364
10.989459604106	0.92561949766242
10.961333016453	0.92561954038779
10.933350036470	0.92561958323255
10.905509567115	0.92561962617967
10.877810522496	0.92561966921234
10.850251827723	0.92561971231397
10.822832418773	0.92561975546816
10.795551242348	0.92561979865873
10.768407255747	0.92561984186969
10.741399426729	0.92561988508528
10.714526733381	0.92561992828992
10.687788163993	0.92561997146826
10.661182716927	0.92562001460515
10.634709400497	0.92562005768562
10.608367232838	0.92562010069494
10.582155241793	0.92562014361856
10.556072464789	0.92562018644214
10.530117948718	0.92562022915155
10.504290749825	0.92562027173285
10.478589933590	0.92562031417232
10.453014574616	0.92562035645641
10.427563756522	0.92562039857180
10.402236571825	0.92562044050536
10.377032121841	0.92562048224417
10.351949516575	0.92562052377548
10.326987874612	0.92562056508678
10.302146323024	0.92562060616572
10.277423997257	0.92562064700017
10.252820041040	0.92562068757819
10.228333606278	0.92562072788805
10.203963852961	0.92562076791818
10.179709949066	0.92562080765725
10.155571070461	0.92562084709409
10.131546400811	0.92562088621774
10.107635131490	0.92562092501744
10.083836461487	0.92562096348259
10.060149597315	0.92562100160283
10.036573752929	0.92562103936795
10.013108149633	0.92562107676795
9.9897520159947	0.92562111379301
9.9665045877660	0.92562115043352
9.9433651077944	0.92562118668003
9.9203328259431	0.92562122252329
9.8974069990096	0.92562125795426
9.8745868906456	0.92562129296403
9.8518717712783	0.92562132754394
9.8292609180328	0.92562136168547
9.8067536146549	0.92562139538031
9.7843491514360	0.92562142862030
9.7620468251384	0.92562146139750
9.7398459389214	0.92562149370414
9.7177458022690	0.92562152553261
9.6957457309185	0.92562155687551
9.6738450467893	0.92562158772561
9.6520430779137	0.92562161807583
9.6303391583681	0.92562164791932
9.6087326282051	0.92562167724936
9.5872228333866	0.92562170605942
9.5658091257179	0.92562173434317
9.5444908627826	0.92562176209441
9.5232674078780	0.92562178930716
9.5021381299525	0.92562181597557
9.4811024035421	0.92562184209398
9.4601596087094	0.92562186765691
9.4393091309824	0.92562189265904
9.4185503612944	0.92562191709521
9.3978826959248	0.92562194096045
9.3773055364404	0.92562196424994
9.3568182896380	0.92562198695902
9.3364203674868	0.92562200908321
9.3161111870727	0.92562203061820
9.2958901705426	0.92562205155982
9.2757567450495	0.92562207190409
9.2557103426984	0.92562209164715
9.2357504004929	0.92562211078535
9.2158763602828	0.92562212931517
9.1960876687117	0.92562214723325
9.1763837771656	0.92562216453640
9.1567641417227	0.92562218122157
9.1372282231027	0.92562219728587
9.1177754866180	0.92562221272658
9.0984054021244	0.92562222754111
9.0791174439733	0.92562224172705
9.0599110909640	0.92562225528211
9.0407858262967	0.92562226820417
9.0217411375263	0.92562228049125
9.0027765165165	0.92562229214154
8.9838914593947	0.92562230315334
8.9650854665072	0.92562231352514
8.9463580423754	0.92562232325553
8.9277086956522	0.92562233234328
8.9091369390788	0.92562234078728
8.8906422894425	0.92562234858658
8.8722242675348	0.92562235574036
8.8538823981099	0.92562236224794
8.8356162098438	0.92562236810878
8.8174252352941	0.92562237332248
8.7993090108600	0.92562237788878
8.7812670767428	0.92562238180754
8.7632989769073	0.92562238507878
8.7454042590432	0.92562238770263
8.7275824745269	0.92562238967937
8.7098331783847	0.92562239100938
8.6921559292549	0.92562239169322
8.6745502893519	0.92562239173153
8.6570158244297	0.92562239112511
8.6395521037464	0.92562238987488
8.6221587000288	0.92562238798187
8.6048351894374	0.92562238544725
8.5875811515325	0.92562238227231
8.5703961692396	0.92562237845846
8.5532798288160	0.92562237400723
8.5362317198178	0.92562236892028
8.5192514350668	0.92562236319937
8.5023385706183	0.92562235684640
8.4854927257288	0.92562234986336
8.4687135028249	0.92562234225239
8.4520005074711	0.92562233401571
8.4353533483399	0.92562232515567
8.4187716371806	0.92562231567473
8.4022549887892	0.92562230557546
8.3858030209790	0.92562229486054
8.3694153545505	0.92562228353275
8.3530916132627	0.92562227159500
8.3368314238042	0.92562225905028
8.3206344157646	0.92562224590170
8.3045002216066	0.92562223215247
8.2884284766381	0.92562221780589
8.2724188189845	0.92562220286538
8.2564708895621	0.92562218733446
8.2405843320506	0.92562217121674
8.2247587928669	0.92562215451592
8.2089939211391	0.92562213723581
8.1932893686800	0.92562211938031
8.1776447899618	0.92562210095343
8.1620598420909	0.92562208195923
8.1465341847826	0.92562206240192
8.1310674803363	0.92562204228575
8.1156593936113	0.92562202161509
8.1003095920022	0.92562200039438
8.0850177454153	0.92562197862817
8.0697835262450	0.92562195632106
8.0546066093498	0.92562193347777
8.0394866720300	0.92562191010309
8.0244233940043	0.92562188620188
8.0094164573871	0.92562186177910
