#Parameters = {thARC=0.2; nARC=2; thsub=1; p=1; nSub=1.75}
#"Wavelength / um"	"T (188) [Real Part]"
#---------------------------------------
14.008993364486	0.92399026153304
13.963318956684	0.92401776234930
13.917941411328	0.92404431481631
13.872857843591	0.92406992651812
13.828065405904	0.92409460502233
13.783561287356	0.92411835787982
13.739342713107	0.92414119262442
13.695406943810	0.92416311677266
13.651751275046	0.92418413782347
13.608373036768	0.92420426325790
13.565269592760	0.92422350053882
13.522438340099	0.92424185711071
13.479876708633	0.92425934039932
13.437582160466	0.92427595781140
13.395552189455	0.92429171673449
13.353784320713	0.92430662453661
13.312276110124	0.92432068856601
13.271025143869	0.92433391615090
13.230029037952	0.92434631459921
13.189285437747	0.92435789119834
13.148792017544	0.92436865321488
13.108546480105	0.92437860789440
13.068546556234	0.92438776246117
13.028790004346	0.92439612411793
12.989274610052	0.92440370004569
12.949998185745	0.92441049740341
12.910958570198	0.92441652332785
12.872153628167	0.92442178493327
12.833581250000	0.92442628931126
12.795239351259	0.92443004353048
12.757125872340	0.92443305463644
12.719238778108	0.92443532965128
12.681576057530	0.92443687557357
12.644135723323	0.92443769937807
12.606915811606	0.92443780801554
12.569914381551	0.92443720841252
12.533129515050	0.92443590747112
12.496559316382	0.92443391206883
12.460201911887	0.92443122905829
12.424055449648	0.92442786526714
12.388118099174	0.92442382749778
12.352388051092	0.92441912252720
12.316863516845	0.92441375710678
12.281542728390	0.92440773796211
12.246423937908	0.92440107179280
12.211505417515	0.92439376527230
12.176785458976	0.92438582504774
12.142262373431	0.92437725773971
12.107934491115	0.92436806994212
12.073800161095	0.92435826822203
12.039857751004	0.92434785911946
12.006105646776	0.92433684914724
11.972542252396	0.92432524479086
11.939165989646	0.92431305250827
11.905975297855	0.92430027872975
11.872968633663	0.92428692985776
11.840144470774	0.92427301226678
11.807501299724	0.92425853230316
11.775037627651	0.92424349628494
11.742751978065	0.92422791050179
11.710642890625	0.92421178121477
11.678708920919	0.92419511465626
11.646948640249	0.92417791702979
11.615360635413	0.92416019450991
11.583943508501	0.92414195324209
11.552695876686	0.92412319934253
11.521616372022	0.92410393889808
11.490703641242	0.92408417796612
11.459956345566	0.92406392257441
11.429373160503	0.92404317872097
11.398952775665	0.92402195237399
11.368693894577	0.92400024947172
11.338595234493	0.92397807592231
11.308655526217	0.92395543760376
11.278873513920	0.92393234036377
11.249247954972	0.92390879001966
11.219777619760	0.92388479235827
11.190461291527	0.92386035313583
11.161297766195	0.92383547807790
11.132285852209	0.92381017287926
11.103424370370	0.92378444320383
11.074712153676	0.92375829468455
11.046148047163	0.92373173292333
11.017730907755	0.92370476349093
10.989459604106	0.92367739192692
10.961333016453	0.92364962373956
10.933350036470	0.92362146440574
10.905509567115	0.92359291937092
10.877810522496	0.92356399404901
10.850251827723	0.92353469382236
10.822832418773	0.92350502404165
10.795551242348	0.92347499002583
10.768407255747	0.92344459706206
10.741399426729	0.92341385040567
10.714526733381	0.92338275528007
10.687788163993	0.92335131687669
10.661182716927	0.92331954035496
10.634709400497	0.92328743084222
10.608367232838	0.92325499343370
10.582155241793	0.92322223319245
10.556072464789	0.92318915514931
10.530117948718	0.92315576430284
10.504290749825	0.92312206561932
10.478589933590	0.92308806403266
10.453014574616	0.92305376444441
10.427563756522	0.92301917172369
10.402236571825	0.92298429070719
10.377032121841	0.92294912619909
10.351949516575	0.92291368297109
10.326987874612	0.92287796576232
10.302146323024	0.92284197927938
10.277423997257	0.92280572819627
10.252820041040	0.92276921715438
10.228333606278	0.92273245076247
10.203963852961	0.92269543359668
10.179709949066	0.92265817020047
10.155571070461	0.92262066508463
10.131546400811	0.92258292272730
10.107635131490	0.92254494757388
10.083836461487	0.92250674403711
10.060149597315	0.92246831649702
10.036573752929	0.92242966930091
10.013108149633	0.92239080676340
9.9897520159947	0.92235173316639
9.9665045877660	0.92231245275907
9.9433651077944	0.92227296975793
9.9203328259431	0.92223328834678
9.8974069990096	0.92219341267671
9.8745868906456	0.92215334686616
9.8518717712783	0.92211309500089
9.8292609180328	0.92207266113400
9.8067536146549	0.92203204928596
9.7843491514360	0.92199126344463
9.7620468251384	0.92195030756522
9.7398459389214	0.92190918557041
9.7177458022690	0.92186790135027
9.6957457309185	0.92182645876237
9.6738450467893	0.92178486163173
9.6520430779137	0.92174311375091
9.6303391583681	0.92170121888000
9.6087326282051	0.92165918074666
9.5872228333866	0.92161700304615
9.5658091257179	0.92157468944137
9.5444908627826	0.92153224356290
9.5232674078780	0.92148966900901
9.5021381299525	0.92144696934572
9.4811024035421	0.92140414810685
9.4601596087094	0.92136120879404
9.4393091309824	0.92131815487679
9.4185503612944	0.92127498979251
9.3978826959248	0.92123171694661
9.3773055364404	0.92118833971245
9.3568182896380	0.92114486143149
9.3364203674868	0.92110128541328
9.3161111870727	0.92105761493553
9.2958901705426	0.92101385324416
9.2757567450495	0.92097000355336
9.2557103426984	0.92092606904564
9.2357504004929	0.92088205287189
9.2158763602828	0.92083795815144
9.1960876687117	0.92079378797212
9.1763837771656	0.92074954539032
9.1567641417227	0.92070523343106
9.1372282231027	0.92066085508805
9.1177754866180	0.92061641332373
9.0984054021244	0.92057191106940
9.0791174439733	0.92052735122522
9.0599110909640	0.92048273666033
9.0407858262967	0.92043807021287
9.0217411375263	0.92039335469013
9.0027765165165	0.92034859286853
8.9838914593947	0.92030378749378
8.9650854665072	0.92025894128089
8.9463580423754	0.92021405691429
8.9277086956522	0.92016913704788
8.9091369390788	0.92012418430513
8.8906422894425	0.92007920127917
8.8722242675348	0.92003419053282
8.8538823981099	0.91998915459875
8.8356162098438	0.91994409597948
8.8174252352941	0.91989901714755
8.7993090108600	0.91985392054554
8.7812670767428	0.91980880858619
8.7632989769073	0.91976368365249
8.7454042590432	0.91971854809774
8.7275824745269	0.91967340424569
8.7098331783847	0.91962825439058
8.6921559292549	0.91958310079729
8.6745502893519	0.91953794570137
8.6570158244297	0.91949279130918
8.6395521037464	0.91944763979799
8.6221587000288	0.91940249331603
8.6048351894374	0.91935735398266
8.5875811515325	0.91931222388838
8.5703961692396	0.91926710509502
8.5532798288160	0.91922199963579
8.5362317198178	0.91917690951538
8.5192514350668	0.91913183671009
8.5023385706183	0.91908678316791
8.4854927257288	0.91904175080864
8.4687135028249	0.91899674152399
8.4520005074711	0.91895175717770
8.4353533483399	0.91890679960560
8.4187716371806	0.91886187061580
8.4022549887892	0.91881697198872
8.3858030209790	0.91877210547724
8.3694153545505	0.91872727280682
8.3530916132627	0.91868247567558
8.3368314238042	0.91863771575443
8.3206344157646	0.91859299468720
8.3045002216066	0.91854831409072
8.2884284766381	0.91850367555496
8.2724188189845	0.91845908064314
8.2564708895621	0.91841453089184
8.2405843320506	0.91837002781113
8.2247587928669	0.91832557288467
8.2089939211391	0.91828116756987
8.1932893686800	0.91823681329794
8.1776447899618	0.91819251147409
8.1620598420909	0.91814826347757
8.1465341847826	0.91810407066187
8.1310674803363	0.91805993435480
8.1156593936113	0.91801585585860
8.1003095920022	0.91797183645010
8.0850177454153	0.91792787738084
8.0697835262450	0.91788397987715
8.0546066093498	0.91784014514035
8.0394866720300	0.91779637434679
8.0244233940043	0.91775266864808
8.0094164573871	0.91770902917111
