#Parameters = {thARC=0; nARC=2.5; thsub=1; p=1; nSub=1.75}
#"Wavelength / um"	"T (199) [Real Part]"
#---------------------------------------
14.008993364486	0.92601746759982
13.963318956684	0.92603350103611
13.917941411328	0.92604919233145
13.872857843591	0.92606454473208
13.828065405904	0.92607956147103
13.783561287356	0.92609424576819
13.739342713107	0.92610860083015
13.695406943810	0.92612262985026
13.651751275046	0.92613633600850
13.608373036768	0.92614972247151
13.565269592760	0.92616279239253
13.522438340099	0.92617554891133
13.479876708633	0.92618799515423
13.437582160466	0.92620013423402
13.395552189455	0.92621196924993
13.353784320713	0.92622350328761
13.312276110124	0.92623473941908
13.271025143869	0.92624568070271
13.230029037952	0.92625633018319
13.189285437747	0.92626669089148
13.148792017544	0.92627676584477
13.108546480105	0.92628655804650
13.068546556234	0.92629607048627
13.028790004346	0.92630530613986
12.989274610052	0.92631426796916
12.949998185745	0.92632295892218
12.910958570198	0.92633138193299
12.872153628167	0.92633953992171
12.833581250000	0.92634743579450
12.795239351259	0.92635507244351
12.757125872340	0.92636245274684
12.719238778108	0.92636957956859
12.681576057530	0.92637645575874
12.644135723323	0.92638308415320
12.606915811606	0.92638946757378
12.569914381551	0.92639560882812
12.533129515050	0.92640151070973
12.496559316382	0.92640717599793
12.460201911887	0.92641260745787
12.424055449648	0.92641780784048
12.388118099174	0.92642277988243
12.352388051092	0.92642752630620
12.316863516845	0.92643204981998
12.281542728390	0.92643635311769
12.246423937908	0.92644043887895
12.211505417515	0.92644430976910
12.176785458976	0.92644796843914
12.142262373431	0.92645141752577
12.107934491115	0.92645465965133
12.073800161095	0.92645769742381
12.039857751004	0.92646053343684
12.006105646776	0.92646317026968
11.972542252396	0.92646561048722
11.939165989646	0.92646785663994
11.905975297855	0.92646991126394
11.872968633663	0.92647177688091
11.840144470774	0.92647345599813
11.807501299724	0.92647495110846
11.775037627651	0.92647626469036
11.742751978065	0.92647739920782
11.710642890625	0.92647835711044
11.678708920919	0.92647914083337
11.646948640249	0.92647975279732
11.615360635413	0.92648019540857
11.583943508501	0.92648047105895
11.552695876686	0.92648058212585
11.521616372022	0.92648053097222
11.490703641242	0.92648031994658
11.459956345566	0.92647995138297
11.429373160503	0.92647942760104
11.398952775665	0.92647875090597
11.368693894577	0.92647792358851
11.338595234493	0.92647694792498
11.308655526217	0.92647582617727
11.278873513920	0.92647456059284
11.249247954972	0.92647315340474
11.219777619760	0.92647160683160
11.190461291527	0.92646992307764
11.161297766195	0.92646810433267
11.132285852209	0.92646615277213
11.103424370370	0.92646407055704
11.074712153676	0.92646185983407
11.046148047163	0.92645952273549
11.017730907755	0.92645706137922
10.989459604106	0.92645447786885
10.961333016453	0.92645177429359
10.933350036470	0.92644895272834
10.905509567115	0.92644601523368
10.877810522496	0.92644296385588
10.850251827723	0.92643980062691
10.822832418773	0.92643652756446
10.795551242348	0.92643314667195
10.768407255747	0.92642965993854
10.741399426729	0.92642606933917
10.714526733381	0.92642237683452
10.687788163993	0.92641858437108
10.661182716927	0.92641469388115
10.634709400497	0.92641070728284
10.608367232838	0.92640662648009
10.582155241793	0.92640245336272
10.556072464789	0.92639818980640
10.530117948718	0.92639383767270
10.504290749825	0.92638939880912
10.478589933590	0.92638487504905
10.453014574616	0.92638026821186
10.427563756522	0.92637558010288
10.402236571825	0.92637081251343
10.377032121841	0.92636596722084
10.351949516575	0.92636104598848
10.326987874612	0.92635605056577
10.302146323024	0.92635098268820
10.277423997257	0.92634584407738
10.252820041040	0.92634063644103
10.228333606278	0.92633536147300
10.203963852961	0.92633002085335
10.179709949066	0.92632461624832
10.155571070461	0.92631914931035
10.131546400811	0.92631362167816
10.107635131490	0.92630803497672
10.083836461487	0.92630239081731
10.060149597315	0.92629669079754
10.036573752929	0.92629093650135
10.013108149633	0.92628512949909
9.9897520159947	0.92627927134750
9.9665045877660	0.92627336358977
9.9433651077944	0.92626740775554
9.9203328259431	0.92626140536095
9.8974069990096	0.92625535790867
9.8745868906456	0.92624926688793
9.8518717712783	0.92624313377453
9.8292609180328	0.92623696003090
9.8067536146549	0.92623074710609
9.7843491514360	0.92622449643586
9.7620468251384	0.92621820944267
9.7398459389214	0.92621188753571
9.7177458022690	0.92620553211096
9.6957457309185	0.92619914455120
9.6738450467893	0.92619272622605
9.6520430779137	0.92618627849200
9.6303391583681	0.92617980269247
9.6087326282051	0.92617330015780
9.5872228333866	0.92616677220531
9.5658091257179	0.92616022013934
9.5444908627826	0.92615364525128
9.5232674078780	0.92614704881961
9.5021381299525	0.92614043210990
9.4811024035421	0.92613379637490
9.4601596087094	0.92612714285456
9.4393091309824	0.92612047277604
9.4185503612944	0.92611378735378
9.3978826959248	0.92610708778952
9.3773055364404	0.92610037527234
9.3568182896380	0.92609365097871
9.3364203674868	0.92608691607252
9.3161111870727	0.92608017170510
9.2958901705426	0.92607341901530
9.2757567450495	0.92606665912950
9.2557103426984	0.92605989316165
9.2357504004929	0.92605312221333
9.2158763602828	0.92604634737378
9.1960876687117	0.92603956971992
9.1763837771656	0.92603279031642
9.1567641417227	0.92602601021573
9.1372282231027	0.92601923045813
9.1177754866180	0.92601245207176
9.0984054021244	0.92600567607266
9.0791174439733	0.92599890346482
9.0599110909640	0.92599213524022
9.0407858262967	0.92598537237889
9.0217411375263	0.92597861584891
9.0027765165165	0.92597186660651
8.9838914593947	0.92596512559607
8.9650854665072	0.92595839375017
8.9463580423754	0.92595167198965
8.9277086956522	0.92594496122365
8.9091369390788	0.92593826234966
8.8906422894425	0.92593157625353
8.8722242675348	0.92592490380957
8.8538823981099	0.92591824588054
8.8356162098438	0.92591160331775
8.8174252352941	0.92590497696107
8.7993090108600	0.92589836763896
8.7812670767428	0.92589177616858
8.7632989769073	0.92588520335576
8.7454042590432	0.92587864999512
8.7275824745269	0.92587211687004
8.7098331783847	0.92586560475280
8.6921559292549	0.92585911440452
8.6745502893519	0.92585264657530
8.6570158244297	0.92584620200423
8.6395521037464	0.92583978141941
8.6221587000288	0.92583338553806
8.6048351894374	0.92582701506651
8.5875811515325	0.92582067070030
8.5703961692396	0.92581435312418
8.5532798288160	0.92580806301218
8.5362317198178	0.92580180102769
8.5192514350668	0.92579556782345
8.5023385706183	0.92578936404164
8.4854927257288	0.92578319031392
8.4687135028249	0.92577704726149
8.4520005074711	0.92577093549510
8.4353533483399	0.92576485561517
8.4187716371806	0.92575880821175
8.4022549887892	0.92575279386468
8.3858030209790	0.92574681314352
8.3694153545505	0.92574086660771
8.3530916132627	0.92573495480655
8.3368314238042	0.92572907827928
8.3206344157646	0.92572323755511
8.3045002216066	0.92571743315332
8.2884284766381	0.92571166558326
8.2724188189845	0.92570593534440
8.2564708895621	0.92570024292644
8.2405843320506	0.92569458880930
8.2247587928669	0.92568897346321
8.2089939211391	0.92568339734873
8.1932893686800	0.92567786091684
8.1776447899618	0.92567236460896
8.1620598420909	0.92566690885704
8.1465341847826	0.92566149408356
8.1310674803363	0.92565612070164
8.1156593936113	0.92565078911503
8.1003095920022	0.92564549971824
8.0850177454153	0.92564025289652
8.0697835262450	0.92563504902596
8.0546066093498	0.92562988847352
8.0394866720300	0.92562477159712
8.0244233940043	0.92561969874563
8.0094164573871	0.92561467025897
