#Parameters = {thARC=1; nARC=2.75; thsub=1; p=1; nSub=1.75}
#"Wavelength / um"	"T (210) [Real Part]"
#---------------------------------------
14.008993364486	0.63499994829599
13.963318956684	0.63446765065048
13.917941411328	0.63394074508475
13.872857843591	0.63341926171311
13.828065405904	0.63290323014643
13.783561287356	0.63239267949892
13.739342713107	0.63188763839492
13.695406943810	0.63138813497557
13.651751275046	0.63089419690555
13.608373036768	0.63040585137971
13.565269592760	0.62992312512966
13.522438340099	0.62944604443035
13.479876708633	0.62897463510660
13.437582160466	0.62850892253961
13.395552189455	0.62804893167332
13.353784320713	0.62759468702088
13.312276110124	0.62714621267097
13.271025143869	0.62670353229410
13.230029037952	0.62626666914884
13.189285437747	0.62583564608805
13.148792017544	0.62541048556502
13.108546480105	0.62499120963956
13.068546556234	0.62457783998408
13.028790004346	0.62417039788950
12.989274610052	0.62376890427132
12.949998185745	0.62337337967537
12.910958570198	0.62298384428374
12.872153628167	0.62260031792050
12.833581250000	0.62222282005742
12.795239351259	0.62185136981967
12.757125872340	0.62148598599137
12.719238778108	0.62112668702117
12.681576057530	0.62077349102769
12.644135723323	0.62042641580502
12.606915811606	0.62008547882800
12.569914381551	0.61975069725758
12.533129515050	0.61942208794605
12.496559316382	0.61909966744220
12.460201911887	0.61878345199647
12.424055449648	0.61847345756600
12.388118099174	0.61816969981960
12.352388051092	0.61787219414271
12.316863516845	0.61758095564228
12.281542728390	0.61729599915153
12.246423937908	0.61701733923475
12.211505417515	0.61674499019193
12.176785458976	0.61647896606339
12.142262373431	0.61621928063435
12.107934491115	0.61596594743939
12.073800161095	0.61571897976689
12.039857751004	0.61547839066335
12.006105646776	0.61524419293774
11.972542252396	0.61501639916567
11.939165989646	0.61479502169359
11.905975297855	0.61458007264286
11.872968633663	0.61437156391379
11.840144470774	0.61416950718960
11.807501299724	0.61397391394033
11.775037627651	0.61378479542664
11.742751978065	0.61360216270364
11.710642890625	0.61342602662451
11.678708920919	0.61325639784421
11.646948640249	0.61309328682299
11.615360635413	0.61293670382994
11.583943508501	0.61278665894639
11.552695876686	0.61264316206930
11.521616372022	0.61250622291457
11.490703641242	0.61237585102027
11.459956345566	0.61225205574981
11.429373160503	0.61213484629507
11.398952775665	0.61202423167940
11.368693894577	0.61192022076064
11.338595234493	0.61182282223400
11.308655526217	0.61173204463493
11.278873513920	0.61164789634186
11.249247954972	0.61157038557895
11.219777619760	0.61149952041872
11.190461291527	0.61143530878465
11.161297766195	0.61137775845363
11.132285852209	0.61132687705852
11.103424370370	0.61128267209043
11.074712153676	0.61124515090110
11.046148047163	0.61121432070514
11.017730907755	0.61119018858220
10.989459604106	0.61117276147911
10.961333016453	0.61116204621195
10.933350036470	0.61115804946801
10.905509567115	0.61116077780774
10.877810522496	0.61117023766661
10.850251827723	0.61118643535689
10.822832418773	0.61120937706943
10.795551242348	0.61123906887524
10.768407255747	0.61127551672720
10.741399426729	0.61131872646151
10.714526733381	0.61136870379919
10.687788163993	0.61142545434752
10.661182716927	0.61148898360134
10.634709400497	0.61155929694433
10.608367232838	0.61163639965027
10.582155241793	0.61172029688413
10.556072464789	0.61181099370319
10.530117948718	0.61190849505805
10.504290749825	0.61201280579360
10.478589933590	0.61212393064987
10.453014574616	0.61224187426290
10.427563756522	0.61236664116548
10.402236571825	0.61249823578785
10.377032121841	0.61263666245834
10.351949516575	0.61278192540391
10.326987874612	0.61293402875071
10.302146323024	0.61309297652445
10.277423997257	0.61325877265082
10.252820041040	0.61343142095579
10.228333606278	0.61361092516585
10.203963852961	0.61379728890819
10.179709949066	0.61399051571083
10.155571070461	0.61419060900264
10.131546400811	0.61439757211337
10.107635131490	0.61461140827351
10.083836461487	0.61483212061422
10.060149597315	0.61505971216707
10.036573752929	0.61529418586379
10.013108149633	0.61553554453591
9.9897520159947	0.61578379091439
9.9665045877660	0.61603892762911
9.9433651077944	0.61630095720839
9.9203328259431	0.61656988207834
9.8974069990096	0.61684570456221
9.8745868906456	0.61712842687969
9.8518717712783	0.61741805114607
9.8292609180328	0.61771457937141
9.8067536146549	0.61801801345962
9.7843491514360	0.61832835520742
9.7620468251384	0.61864560630335
9.7398459389214	0.61896976832657
9.7177458022690	0.61930084274575
9.6957457309185	0.61963883091775
9.6738450467893	0.61998373408631
9.6520430779137	0.62033555338070
9.6303391583681	0.62069428981421
9.6087326282051	0.62105994428265
9.5872228333866	0.62143251756278
9.5658091257179	0.62181201031062
9.5444908627826	0.62219842305973
9.5232674078780	0.62259175621946
9.5021381299525	0.62299201007301
9.4811024035421	0.62339918477561
9.4601596087094	0.62381328035242
9.4393091309824	0.62423429669654
9.4185503612944	0.62466223356686
9.3978826959248	0.62509709058584
9.3773055364404	0.62553886723728
9.3568182896380	0.62598756286394
9.3364203674868	0.62644317666520
9.3161111870727	0.62690570769452
9.2958901705426	0.62737515485693
9.2757567450495	0.62785151690644
9.2557103426984	0.62833479244331
9.2357504004929	0.62882497991135
9.2158763602828	0.62932207759507
9.1960876687117	0.62982608361681
9.1763837771656	0.63033699593376
9.1567641417227	0.63085481233496
9.1372282231027	0.63137953043818
9.1177754866180	0.63191114768677
9.0984054021244	0.63244966134640
9.0791174439733	0.63299506850177
9.0599110909640	0.63354736605320
9.0407858262967	0.63410655071324
9.0217411375263	0.63467261900309
9.0027765165165	0.63524556724902
8.9838914593947	0.63582539157872
8.9650854665072	0.63641208791758
8.9463580423754	0.63700565198485
8.9277086956522	0.63760607928976
8.9091369390788	0.63821336512764
8.8906422894425	0.63882750457580
8.8722242675348	0.63944849248952
8.8538823981099	0.64007632349784
8.8356162098438	0.64071099199935
8.8174252352941	0.64135249215789
8.7993090108600	0.64200081789814
8.7812670767428	0.64265596290119
8.7632989769073	0.64331792060004
8.7454042590432	0.64398668417495
8.7275824745269	0.64466224654886
8.7098331783847	0.64534460038256
8.6921559292549	0.64603373806996
8.6745502893519	0.64672965173317
8.6570158244297	0.64743233321757
8.6395521037464	0.64814177408678
8.6221587000288	0.64885796561754
8.6048351894374	0.64958089879461
8.5875811515325	0.65031056430550
8.5703961692396	0.65104695253513
8.5532798288160	0.65179005356052
8.5362317198178	0.65253985714532
8.5192514350668	0.65329635273426
8.5023385706183	0.65405952944763
8.4854927257288	0.65482937607556
8.4687135028249	0.65560588107235
8.4520005074711	0.65638903255062
8.4353533483399	0.65717881827552
8.4187716371806	0.65797522565873
8.4022549887892	0.65877824175252
8.3858030209790	0.65958785324363
8.3694153545505	0.66040404644721
8.3530916132627	0.66122680730054
8.3368314238042	0.66205612135682
8.3206344157646	0.66289197377885
8.3045002216066	0.66373434933258
8.2884284766381	0.66458323238072
8.2724188189845	0.66543860687614
8.2564708895621	0.66630045635538
8.2405843320506	0.66716876393193
8.2247587928669	0.66804351228954
8.2089939211391	0.66892468367546
8.1932893686800	0.66981225989364
8.1776447899618	0.67070622229777
8.1620598420909	0.67160655178440
8.1465341847826	0.67251322878592
8.1310674803363	0.67342623326348
8.1156593936113	0.67434554469990
8.1003095920022	0.67527114209252
8.0850177454153	0.67620300394592
8.0697835262450	0.67714110826471
8.0546066093498	0.67808543254617
8.0394866720300	0.67903595377290
8.0244233940043	0.67999264840537
8.0094164573871	0.68095549237449
