#Parameters = {thARC=0; nARC=2.25; thsub=1; p=1; nSub=2}
#"Wavelength / um"	"T (247) [Real Part]"
#---------------------------------------
14.008993364486	0.88961423309826
13.963318956684	0.88964376954767
13.917941411328	0.88967270467300
13.872857843591	0.88970104379740
13.828065405904	0.88972879222804
13.783561287356	0.88975595525595
13.739342713107	0.88978253815583
13.695406943810	0.88980854618600
13.651751275046	0.88983398458815
13.608373036768	0.88985885858729
13.565269592760	0.88988317339157
13.522438340099	0.88990693419217
13.479876708633	0.88993014616314
13.437582160466	0.88995281446127
13.395552189455	0.88997494422599
13.353784320713	0.88999654057922
13.312276110124	0.89001760862524
13.271025143869	0.89003815345057
13.230029037952	0.89005818012385
13.189285437747	0.89007769369572
13.148792017544	0.89009669919868
13.108546480105	0.89011520164701
13.068546556234	0.89013320603661
13.028790004346	0.89015071734492
12.989274610052	0.89016774053078
12.949998185745	0.89018428053434
12.910958570198	0.89020034227693
12.872153628167	0.89021593066096
12.833581250000	0.89023105056982
12.795239351259	0.89024570686777
12.757125872340	0.89025990439983
12.719238778108	0.89027364799167
12.681576057530	0.89028694244954
12.644135723323	0.89029979256014
12.606915811606	0.89031220309054
12.569914381551	0.89032417878808
12.533129515050	0.89033572438026
12.496559316382	0.89034684457468
12.460201911887	0.89035754405893
12.424055449648	0.89036782750048
12.388118099174	0.89037769954663
12.352388051092	0.89038716482439
12.316863516845	0.89039622794045
12.281542728390	0.89040489348100
12.246423937908	0.89041316601176
12.211505417515	0.89042105007780
12.176785458976	0.89042855020354
12.142262373431	0.89043567089262
12.107934491115	0.89044241662786
12.073800161095	0.89044879187116
12.039857751004	0.89045480106342
12.006105646776	0.89046044862452
11.972542252396	0.89046573895319
11.939165989646	0.89047067642698
11.905975297855	0.89047526540216
11.872968633663	0.89047951021371
11.840144470774	0.89048341517520
11.807501299724	0.89048698457874
11.775037627651	0.89049022269495
11.742751978065	0.89049313377286
11.710642890625	0.89049572203989
11.678708920919	0.89049799170177
11.646948640249	0.89049994694247
11.615360635413	0.89050159192419
11.583943508501	0.89050293078728
11.552695876686	0.89050396765017
11.521616372022	0.89050470660938
11.490703641242	0.89050515173940
11.459956345566	0.89050530709271
11.429373160503	0.89050517669967
11.398952775665	0.89050476456855
11.368693894577	0.89050407468542
11.338595234493	0.89050311101414
11.308655526217	0.89050187749632
11.278873513920	0.89050037805129
11.249247954972	0.89049861657602
11.219777619760	0.89049659694516
11.190461291527	0.89049432301093
11.161297766195	0.89049179860313
11.132285852209	0.89048902752909
11.103424370370	0.89048601357366
11.074712153676	0.89048276049916
11.046148047163	0.89047927204535
11.017730907755	0.89047555192944
10.989459604106	0.89047160384603
10.961333016453	0.89046743146707
10.933350036470	0.89046303844189
10.905509567115	0.89045842839715
10.877810522496	0.89045360493682
10.850251827723	0.89044857164215
10.822832418773	0.89044333207168
10.795551242348	0.89043788976119
10.768407255747	0.89043224822374
10.741399426729	0.89042641094959
10.714526733381	0.89042038140623
10.687788163993	0.89041416303834
10.661182716927	0.89040775926783
10.634709400497	0.89040117349376
10.608367232838	0.89039440909240
10.582155241793	0.89038746941717
10.556072464789	0.89038035779869
10.530117948718	0.89037307754470
10.504290749825	0.89036563194013
10.478589933590	0.89035802424708
10.453014574616	0.89035025770477
10.427563756522	0.89034233552961
10.402236571825	0.89033426091517
10.377032121841	0.89032603703215
10.351949516575	0.89031766702846
10.326987874612	0.89030915402916
10.302146323024	0.89030050113648
10.277423997257	0.89029171142985
10.252820041040	0.89028278796589
10.228333606278	0.89027373377842
10.203963852961	0.89026455187846
10.179709949066	0.89025524525428
10.155571070461	0.89024581687137
10.131546400811	0.89023626967247
10.107635131490	0.89022660657759
10.083836461487	0.89021683048401
10.060149597315	0.89020694426633
10.036573752929	0.89019695077643
10.013108149633	0.89018685284356
9.9897520159947	0.89017665327430
9.9665045877660	0.89016635485260
9.9433651077944	0.89015596033983
9.9203328259431	0.89014547247474
9.8974069990096	0.89013489397357
9.8745868906456	0.89012422752998
9.8518717712783	0.89011347581515
9.8292609180328	0.89010264147778
9.8067536146549	0.89009172714408
9.7843491514360	0.89008073541789
9.7620468251384	0.89006966888060
9.7398459389214	0.89005853009127
9.7177458022690	0.89004732158661
9.6957457309185	0.89003604588103
9.6738450467893	0.89002470546667
9.6520430779137	0.89001330281344
9.6303391583681	0.89000184036904
9.6087326282051	0.88999032055901
9.5872228333866	0.88997874578676
9.5658091257179	0.88996711843360
9.5444908627826	0.88995544085881
9.5232674078780	0.88994371539963
9.5021381299525	0.88993194437134
9.4811024035421	0.88992013006729
9.4601596087094	0.88990827475893
9.4393091309824	0.88989638069588
9.4185503612944	0.88988445010591
9.3978826959248	0.88987248519509
9.3773055364404	0.88986048814772
9.3568182896380	0.88984846112646
9.3364203674868	0.88983640627234
9.3161111870727	0.88982432570482
9.2958901705426	0.88981222152180
9.2757567450495	0.88980009579974
9.2557103426984	0.88978795059365
9.2357504004929	0.88977578793716
9.2158763602828	0.88976360984258
9.1960876687117	0.88975141830094
9.1763837771656	0.88973921528203
9.1567641417227	0.88972700273450
9.1372282231027	0.88971478258586
9.1177754866180	0.88970255674257
9.0984054021244	0.88969032709008
9.0791174439733	0.88967809549288
9.0599110909640	0.88966586379458
9.0407858262967	0.88965363381796
9.0217411375263	0.88964140736500
9.0027765165165	0.88962918621699
8.9838914593947	0.88961697213453
8.9650854665072	0.88960476685764
8.9463580423754	0.88959257210581
8.9277086956522	0.88958038957804
8.9091369390788	0.88956822095292
8.8906422894425	0.88955606788868
8.8722242675348	0.88954393202329
8.8538823981099	0.88953181497447
8.8356162098438	0.88951971833979
8.8174252352941	0.88950764369673
8.7993090108600	0.88949559260274
8.7812670767428	0.88948356659531
8.7632989769073	0.88947156719203
8.7454042590432	0.88945959589068
8.7275824745269	0.88944765416926
8.7098331783847	0.88943574348610
8.6921559292549	0.88942386527990
8.6745502893519	0.88941202096983
8.6570158244297	0.88940021195554
8.6395521037464	0.88938843961732
8.6221587000288	0.88937670531610
8.6048351894374	0.88936501039355
8.5875811515325	0.88935335617213
8.5703961692396	0.88934174395522
8.5532798288160	0.88933017502712
8.5362317198178	0.88931865065319
8.5192514350668	0.88930717207986
8.5023385706183	0.88929574053478
8.4854927257288	0.88928435722683
8.4687135028249	0.88927302334622
8.4520005074711	0.88926174006458
8.4353533483399	0.88925050853503
8.4187716371806	0.88923932989224
8.4022549887892	0.88922820525252
8.3858030209790	0.88921713571391
8.3694153545505	0.88920612235625
8.3530916132627	0.88919516624126
8.3368314238042	0.88918426841261
8.3206344157646	0.88917342989600
8.3045002216066	0.88916265169928
8.2884284766381	0.88915193481247
8.2724188189845	0.88914128020789
8.2564708895621	0.88913068884022
8.2405843320506	0.88912016164658
8.2247587928669	0.88910969954663
8.2089939211391	0.88909930344264
8.1932893686800	0.88908897421957
8.1776447899618	0.88907871274517
8.1620598420909	0.88906851987005
8.1465341847826	0.88905839642777
8.1310674803363	0.88904834323492
8.1156593936113	0.88903836109122
8.1003095920022	0.88902845077958
8.0850177454153	0.88901861306621
8.0697835262450	0.88900884870071
8.0546066093498	0.88899915841614
8.0394866720300	0.88898954292909
8.0244233940043	0.88898000293982
8.0094164573871	0.88897053913231
