#Parameters = {thARC=0; nARC=2.75; thsub=1; p=1; nSub=2.5}
#"Wavelength / um"	"T (367) [Real Part]"
#---------------------------------------
14.008993364486	0.81632592308947
13.963318956684	0.81632590043806
13.917941411328	0.81632587890893
13.872857843591	0.81632585848482
13.828065405904	0.81632583914857
13.783561287356	0.81632582088313
13.739342713107	0.81632580367155
13.695406943810	0.81632578749695
13.651751275046	0.81632577234258
13.608373036768	0.81632575819177
13.565269592760	0.81632574502797
13.522438340099	0.81632573283472
13.479876708633	0.81632572159564
13.437582160466	0.81632571129450
13.395552189455	0.81632570191511
13.353784320713	0.81632569344143
13.312276110124	0.81632568585750
13.271025143869	0.81632567914745
13.230029037952	0.81632567329555
13.189285437747	0.81632566828612
13.148792017544	0.81632566410362
13.108546480105	0.81632566073261
13.068546556234	0.81632565815773
13.028790004346	0.81632565636373
12.989274610052	0.81632565533548
12.949998185745	0.81632565505793
12.910958570198	0.81632565551615
12.872153628167	0.81632565669530
12.833581250000	0.81632565858065
12.795239351259	0.81632566115757
12.757125872340	0.81632566441153
12.719238778108	0.81632566832810
12.681576057530	0.81632567289298
12.644135723323	0.81632567809194
12.606915811606	0.81632568391086
12.569914381551	0.81632569033575
12.533129515050	0.81632569735269
12.496559316382	0.81632570494788
12.460201911887	0.81632571310763
12.424055449648	0.81632572181833
12.388118099174	0.81632573106650
12.352388051092	0.81632574083874
12.316863516845	0.81632575112179
12.281542728390	0.81632576190245
12.246423937908	0.81632577316765
12.211505417515	0.81632578490442
12.176785458976	0.81632579709989
12.142262373431	0.81632580974130
12.107934491115	0.81632582281600
12.073800161095	0.81632583631141
12.039857751004	0.81632585021511
12.006105646776	0.81632586451472
11.972542252396	0.81632587919802
11.939165989646	0.81632589425287
11.905975297855	0.81632590966723
11.872968633663	0.81632592542916
11.840144470774	0.81632594152684
11.807501299724	0.81632595794855
11.775037627651	0.81632597468267
11.742751978065	0.81632599171768
11.710642890625	0.81632600904217
11.678708920919	0.81632602664484
11.646948640249	0.81632604451446
11.615360635413	0.81632606263996
11.583943508501	0.81632608101032
11.552695876686	0.81632609961466
11.521616372022	0.81632611844218
11.490703641242	0.81632613748220
11.459956345566	0.81632615672413
11.429373160503	0.81632617615749
11.398952775665	0.81632619577189
11.368693894577	0.81632621555708
11.338595234493	0.81632623550286
11.308655526217	0.81632625559918
11.278873513920	0.81632627583606
11.249247954972	0.81632629620364
11.219777619760	0.81632631669215
11.190461291527	0.81632633729193
11.161297766195	0.81632635799344
11.132285852209	0.81632637878719
11.103424370370	0.81632639966385
11.074712153676	0.81632642061415
11.046148047163	0.81632644162895
11.017730907755	0.81632646269919
10.989459604106	0.81632648381592
10.961333016453	0.81632650497030
10.933350036470	0.81632652615356
10.905509567115	0.81632654735707
10.877810522496	0.81632656857228
10.850251827723	0.81632658979073
10.822832418773	0.81632661100408
10.795551242348	0.81632663220408
10.768407255747	0.81632665338258
10.741399426729	0.81632667453154
10.714526733381	0.81632669564299
10.687788163993	0.81632671670910
10.661182716927	0.81632673772210
10.634709400497	0.81632675867435
10.608367232838	0.81632677955829
10.582155241793	0.81632680036645
10.556072464789	0.81632682109148
10.530117948718	0.81632684172612
10.504290749825	0.81632686226320
10.478589933590	0.81632688269565
10.453014574616	0.81632690301650
10.427563756522	0.81632692321888
10.402236571825	0.81632694329601
10.377032121841	0.81632696324120
10.351949516575	0.81632698304787
10.326987874612	0.81632700270953
10.302146323024	0.81632702221979
10.277423997257	0.81632704157233
10.252820041040	0.81632706076096
10.228333606278	0.81632707977956
10.203963852961	0.81632709862212
10.179709949066	0.81632711728271
10.155571070461	0.81632713575551
10.131546400811	0.81632715403477
10.107635131490	0.81632717211485
10.083836461487	0.81632718999020
10.060149597315	0.81632720765537
10.036573752929	0.81632722510498
10.013108149633	0.81632724233376
9.9897520159947	0.81632725933652
9.9665045877660	0.81632727610818
9.9433651077944	0.81632729264373
9.9203328259431	0.81632730893827
9.8974069990096	0.81632732498696
9.8745868906456	0.81632734078508
9.8518717712783	0.81632735632799
9.8292609180328	0.81632737161113
9.8067536146549	0.81632738663004
9.7843491514360	0.81632740138035
9.7620468251384	0.81632741585776
9.7398459389214	0.81632743005808
9.7177458022690	0.81632744397719
9.6957457309185	0.81632745761107
9.6738450467893	0.81632747095578
9.6520430779137	0.81632748400747
9.6303391583681	0.81632749676237
9.6087326282051	0.81632750921679
9.5872228333866	0.81632752136716
9.5658091257179	0.81632753320994
9.5444908627826	0.81632754474172
9.5232674078780	0.81632755595916
9.5021381299525	0.81632756685899
9.4811024035421	0.81632757743804
9.4601596087094	0.81632758769321
9.4393091309824	0.81632759762150
9.4185503612944	0.81632760721998
9.3978826959248	0.81632761648580
9.3773055364404	0.81632762541619
9.3568182896380	0.81632763400848
9.3364203674868	0.81632764226005
9.3161111870727	0.81632765016839
9.2958901705426	0.81632765773105
9.2757567450495	0.81632766494566
9.2557103426984	0.81632767180995
9.2357504004929	0.81632767832169
9.2158763602828	0.81632768447877
9.1960876687117	0.81632769027913
9.1763837771656	0.81632769572080
9.1567641417227	0.81632770080187
9.1372282231027	0.81632770552053
9.1177754866180	0.81632770987504
9.0984054021244	0.81632771386371
9.0791174439733	0.81632771748496
9.0599110909640	0.81632772073726
9.0407858262967	0.81632772361917
9.0217411375263	0.81632772612932
9.0027765165165	0.81632772826640
8.9838914593947	0.81632773002919
8.9650854665072	0.81632773141654
8.9463580423754	0.81632773242736
8.9277086956522	0.81632773306064
8.9091369390788	0.81632773331545
8.8906422894425	0.81632773319090
8.8722242675348	0.81632773268621
8.8538823981099	0.81632773180065
8.8356162098438	0.81632773053354
8.8174252352941	0.81632772888431
8.7993090108600	0.81632772685243
8.7812670767428	0.81632772443744
8.7632989769073	0.81632772163895
8.7454042590432	0.81632771845665
8.7275824745269	0.81632771489028
8.7098331783847	0.81632771093964
8.6921559292549	0.81632770660462
8.6745502893519	0.81632770188516
8.6570158244297	0.81632769678126
8.6395521037464	0.81632769129299
8.6221587000288	0.81632768542049
8.6048351894374	0.81632767916395
8.5875811515325	0.81632767252363
8.5703961692396	0.81632766549986
8.5532798288160	0.81632765809301
8.5362317198178	0.81632765030353
8.5192514350668	0.81632764213192
8.5023385706183	0.81632763357875
8.4854927257288	0.81632762464465
8.4687135028249	0.81632761533029
8.4520005074711	0.81632760563642
8.4353533483399	0.81632759556383
8.4187716371806	0.81632758511340
8.4022549887892	0.81632757428603
8.3858030209790	0.81632756308269
8.3694153545505	0.81632755150441
8.3530916132627	0.81632753955228
8.3368314238042	0.81632752722743
8.3206344157646	0.81632751453106
8.3045002216066	0.81632750146442
8.2884284766381	0.81632748802881
8.2724188189845	0.81632747422557
8.2564708895621	0.81632746005613
8.2405843320506	0.81632744552194
8.2247587928669	0.81632743062451
8.2089939211391	0.81632741536540
8.1932893686800	0.81632739974623
8.1776447899618	0.81632738376866
8.1620598420909	0.81632736743440
8.1465341847826	0.81632735074522
8.1310674803363	0.81632733370292
8.1156593936113	0.81632731630936
8.1003095920022	0.81632729856646
8.0850177454153	0.81632728047615
8.0697835262450	0.81632726204046
8.0546066093498	0.81632724326141
8.0394866720300	0.81632722414110
8.0244233940043	0.81632720468167
8.0094164573871	0.81632718488529
