#Parameters = {thARC=0.8; nARC=2.5; thsub=1; p=1; nSub=2.5}
#"Wavelength / um"	"T (365) [Real Part]"
#---------------------------------------
14.008993364486	0.81719057561247
13.963318956684	0.81721870070372
13.917941411328	0.81724555199227
13.872857843591	0.81727115141423
13.828065405904	0.81729552075308
13.783561287356	0.81731868163836
13.739342713107	0.81734065554453
13.695406943810	0.81736146378976
13.651751275046	0.81738112753481
13.608373036768	0.81739966778195
13.565269592760	0.81741710537392
13.522438340099	0.81743346099288
13.479876708633	0.81744875515944
13.437582160466	0.81746300823174
13.395552189455	0.81747624040453
13.353784320713	0.81748847170829
13.312276110124	0.81749972200842
13.271025143869	0.81751001100441
13.230029037952	0.81751935822911
13.189285437747	0.81752778304796
13.148792017544	0.81753530465836
13.108546480105	0.81754194208895
13.068546556234	0.81754771419900
13.028790004346	0.81755263967785
12.989274610052	0.81755673704431
12.949998185745	0.81756002464616
12.910958570198	0.81756252065966
12.872153628167	0.81756424308908
12.833581250000	0.81756520976628
12.795239351259	0.81756543835029
12.757125872340	0.81756494632700
12.719238778108	0.81756375100878
12.681576057530	0.81756186953420
12.644135723323	0.81755931886774
12.606915811606	0.81755611579960
12.569914381551	0.81755227694541
12.533129515050	0.81754781874613
12.496559316382	0.81754275746785
12.460201911887	0.81753710920168
12.424055449648	0.81753088986365
12.388118099174	0.81752411519466
12.352388051092	0.81751680076042
12.316863516845	0.81750896195149
12.281542728390	0.81750061398321
12.246423937908	0.81749177189584
12.211505417515	0.81748245055456
12.176785458976	0.81747266464959
12.142262373431	0.81746242869635
12.107934491115	0.81745175703553
12.073800161095	0.81744066383335
12.039857751004	0.81742916308168
12.006105646776	0.81741726859833
11.972542252396	0.81740499402726
11.939165989646	0.81739235283884
11.905975297855	0.81737935833018
11.872968633663	0.81736602362544
11.840144470774	0.81735236167615
11.807501299724	0.81733838526157
11.775037627651	0.81732410698913
11.742751978065	0.81730953929475
11.710642890625	0.81729469444336
11.678708920919	0.81727958452926
11.646948640249	0.81726422147668
11.615360635413	0.81724861704019
11.583943508501	0.81723278280527
11.552695876686	0.81721673018880
11.521616372022	0.81720047043965
11.490703641242	0.81718401463921
11.459956345566	0.81716737370200
11.429373160503	0.81715055837627
11.398952775665	0.81713357924462
11.368693894577	0.81711644672466
11.338595234493	0.81709917106966
11.308655526217	0.81708176236921
11.278873513920	0.81706423054994
11.249247954972	0.81704658537622
11.219777619760	0.81702883645090
11.190461291527	0.81701099321600
11.161297766195	0.81699306495354
11.132285852209	0.81697506078628
11.103424370370	0.81695698967849
11.074712153676	0.81693886043678
11.046148047163	0.81692068171093
11.017730907755	0.81690246199467
10.989459604106	0.81688420962657
10.961333016453	0.81686593279089
10.933350036470	0.81684763951843
10.905509567115	0.81682933768745
10.877810522496	0.81681103502454
10.850251827723	0.81679273910554
10.822832418773	0.81677445735645
10.795551242348	0.81675619705438
10.768407255747	0.81673796532849
10.741399426729	0.81671976916095
10.714526733381	0.81670161538788
10.687788163993	0.81668351070036
10.661182716927	0.81666546164541
10.634709400497	0.81664747462696
10.608367232838	0.81662955590690
10.582155241793	0.81661171160607
10.556072464789	0.81659394770530
10.530117948718	0.81657627004642
10.504290749825	0.81655868433333
10.478589933590	0.81654119613305
10.453014574616	0.81652381087678
10.427563756522	0.81650653386093
10.402236571825	0.81648937024826
10.377032121841	0.81647232506892
10.351949516575	0.81645540322155
10.326987874612	0.81643860947439
10.302146323024	0.81642194846636
10.277423997257	0.81640542470820
10.252820041040	0.81638904258356
10.228333606278	0.81637280635015
10.203963852961	0.81635672014084
10.179709949066	0.81634078796481
10.155571070461	0.81632501370870
10.131546400811	0.81630940113772
10.107635131490	0.81629395389686
10.083836461487	0.81627867551196
10.060149597315	0.81626356939095
10.036573752929	0.81624863882496
10.013108149633	0.81623388698952
9.9897520159947	0.81621931694570
9.9665045877660	0.81620493164131
9.9433651077944	0.81619073391206
9.9203328259431	0.81617672648275
9.8974069990096	0.81616291196845
9.8745868906456	0.81614929287569
9.8518717712783	0.81613587160364
9.8292609180328	0.81612265044531
9.8067536146549	0.81610963158875
9.7843491514360	0.81609681711823
9.7620468251384	0.81608420901542
9.7398459389214	0.81607180916064
9.7177458022690	0.81605961933402
9.6957457309185	0.81604764121672
9.6738450467893	0.81603587639211
9.6520430779137	0.81602432634700
9.6303391583681	0.81601299247283
9.6087326282051	0.81600187606686
9.5872228333866	0.81599097833341
9.5658091257179	0.81598030038503
9.5444908627826	0.81596984324372
9.5232674078780	0.81595960784215
9.5021381299525	0.81594959502482
9.4811024035421	0.81593980554931
9.4601596087094	0.81593024008746
9.4393091309824	0.81592089922657
9.4185503612944	0.81591178347061
9.3978826959248	0.81590289324141
9.3773055364404	0.81589422887987
9.3568182896380	0.81588579064715
9.3364203674868	0.81587757872587
9.3161111870727	0.81586959322129
9.2958901705426	0.81586183416251
9.2757567450495	0.81585430150368
9.2557103426984	0.81584699512515
9.2357504004929	0.81583991483468
9.2158763602828	0.81583306036861
9.1960876687117	0.81582643139305
9.1763837771656	0.81582002750505
9.1567641417227	0.81581384823378
9.1372282231027	0.81580789304169
9.1177754866180	0.81580216132569
9.0984054021244	0.81579665241831
9.0791174439733	0.81579136558886
9.0599110909640	0.81578630004458
9.0407858262967	0.81578145493182
9.0217411375263	0.81577682933715
9.0027765165165	0.81577242228855
8.9838914593947	0.81576823275652
8.9650854665072	0.81576425965523
8.9463580423754	0.81576050184364
8.9277086956522	0.81575695812666
8.9091369390788	0.81575362725625
8.8906422894425	0.81575050793254
8.8722242675348	0.81574759880495
8.8538823981099	0.81574489847331
8.8356162098438	0.81574240548896
8.8174252352941	0.81574011835583
8.7993090108600	0.81573803553156
8.7812670767428	0.81573615542861
8.7632989769073	0.81573447641527
8.7454042590432	0.81573299681682
8.7275824745269	0.81573171491657
8.7098331783847	0.81573062895691
8.6921559292549	0.81572973714040
8.6745502893519	0.81572903763083
8.6570158244297	0.81572852855423
8.6395521037464	0.81572820799995
8.6221587000288	0.81572807402172
8.6048351894374	0.81572812463861
8.5875811515325	0.81572835783611
8.5703961692396	0.81572877156716
8.5532798288160	0.81572936375310
8.5362317198178	0.81573013228475
8.5192514350668	0.81573107502336
8.5023385706183	0.81573218980161
8.4854927257288	0.81573347442463
8.4687135028249	0.81573492667091
8.4520005074711	0.81573654429337
8.4353533483399	0.81573832502023
8.4187716371806	0.81574026655602
8.4022549887892	0.81574236658253
8.3858030209790	0.81574462275973
8.3694153545505	0.81574703272672
8.3530916132627	0.81574959410268
8.3368314238042	0.81575230448773
8.3206344157646	0.81575516146393
8.3045002216066	0.81575816259610
8.2884284766381	0.81576130543279
8.2724188189845	0.81576458750713
8.2564708895621	0.81576800633772
8.2405843320506	0.81577155942952
8.2247587928669	0.81577524427468
8.2089939211391	0.81577905835346
8.1932893686800	0.81578299913504
8.1776447899618	0.81578706407835
8.1620598420909	0.81579125063296
8.1465341847826	0.81579555623985
8.1310674803363	0.81579997833227
8.1156593936113	0.81580451433653
8.1003095920022	0.81580916167280
8.0850177454153	0.81581391775591
8.0697835262450	0.81581877999617
8.0546066093498	0.81582374580008
8.0394866720300	0.81582881257114
8.0244233940043	0.81583397771063
8.0094164573871	0.81583923861830
