#Parameters = {thARC=1; nARC=3; thsub=1; p=1; nSub=2.5}
#"Wavelength / um"	"T (378) [Real Part]"
#---------------------------------------
14.008993364486	0.68622025154586
13.963318956684	0.68600166328808
13.917941411328	0.68578725109039
13.872857843591	0.68557702380875
13.828065405904	0.68537099009267
13.783561287356	0.68516915838649
13.739342713107	0.68497153693061
13.695406943810	0.68477813376275
13.651751275046	0.68458895671920
13.608373036768	0.68440401343597
13.565269592760	0.68422331135001
13.522438340099	0.68404685770039
13.479876708633	0.68387465952944
13.437582160466	0.68370672368385
13.395552189455	0.68354305681585
13.353784320713	0.68338366538425
13.312276110124	0.68322855565554
13.271025143869	0.68307773370494
13.230029037952	0.68293120541742
13.189285437747	0.68278897648874
13.148792017544	0.68265105242640
13.108546480105	0.68251743855066
13.068546556234	0.68238813999545
13.028790004346	0.68226316170933
12.989274610052	0.68214250845634
12.949998185745	0.68202618481696
12.910958570198	0.68191419518889
12.872153628167	0.68180654378794
12.833581250000	0.68170323464881
12.795239351259	0.68160427162592
12.757125872340	0.68150965839413
12.719238778108	0.68141939844949
12.681576057530	0.68133349511000
12.644135723323	0.68125195151626
12.606915811606	0.68117477063214
12.569914381551	0.68110195524545
12.533129515050	0.68103350796855
12.496559316382	0.68096943123893
12.460201911887	0.68090972731979
12.424055449648	0.68085439830060
12.388118099174	0.68080344609760
12.352388051092	0.68075687245428
12.316863516845	0.68071467894190
12.281542728390	0.68067686695988
12.246423937908	0.68064343773623
12.211505417515	0.68061439232797
12.176785458976	0.68058973162144
12.142262373431	0.68056945633271
12.107934491115	0.68055356700782
12.073800161095	0.68054206402312
12.039857751004	0.68053494758550
12.006105646776	0.68053221773265
11.972542252396	0.68053387433323
11.939165989646	0.68053991708708
11.905975297855	0.68055034552539
11.872968633663	0.68056515901079
11.840144470774	0.68058435673745
11.807501299724	0.68060793773120
11.775037627651	0.68063590084956
11.742751978065	0.68066824478172
11.710642890625	0.68070496804860
11.678708920919	0.68074606900279
11.646948640249	0.68079154582849
11.615360635413	0.68084139654141
11.583943508501	0.68089561898871
11.552695876686	0.68095421084882
11.521616372022	0.68101716963131
11.490703641242	0.68108449267666
11.459956345566	0.68115617715608
11.429373160503	0.68123222007126
11.398952775665	0.68131261825411
11.368693894577	0.68139736836644
11.338595234493	0.68148646689967
11.308655526217	0.68157991017449
11.278873513920	0.68167769434045
11.249247954972	0.68177981537561
11.219777619760	0.68188626908609
11.190461291527	0.68199705110562
11.161297766195	0.68211215689512
11.132285852209	0.68223158174211
11.103424370370	0.68235532076028
11.074712153676	0.68248336888890
11.046148047163	0.68261572089225
11.017730907755	0.68275237135901
10.989459604106	0.68289331470167
10.961333016453	0.68303854515589
10.933350036470	0.68318805677979
10.905509567115	0.68334184345330
10.877810522496	0.68349989887740
10.850251827723	0.68366221657344
10.822832418773	0.68382878988232
10.795551242348	0.68399961196372
10.768407255747	0.68417467579534
10.741399426729	0.68435397417198
10.714526733381	0.68453749970477
10.687788163993	0.68472524482023
10.661182716927	0.68491720175943
10.634709400497	0.68511336257700
10.608367232838	0.68531371914028
10.582155241793	0.68551826312827
10.556072464789	0.68572698603070
10.530117948718	0.68593987914700
10.504290749825	0.68615693358531
10.478589933590	0.68637814026139
10.453014574616	0.68660348989759
10.427563756522	0.68683297302175
10.402236571825	0.68706657996611
10.377032121841	0.68730430086618
10.351949516575	0.68754612565960
10.326987874612	0.68779204408499
10.302146323024	0.68804204568077
10.277423997257	0.68829611978395
10.252820041040	0.68855425552895
10.228333606278	0.68881644184636
10.203963852961	0.68908266746168
10.179709949066	0.68935292089409
10.155571070461	0.68962719045514
10.131546400811	0.68990546424750
10.107635131490	0.69018773016362
10.083836461487	0.69047397588444
10.060149597315	0.69076418887801
10.036573752929	0.69105835639819
10.013108149633	0.69135646548329
9.9897520159947	0.69165850295465
9.9665045877660	0.69196445541530
9.9433651077944	0.69227430924853
9.9203328259431	0.69258805061652
9.8974069990096	0.69290566545887
9.8745868906456	0.69322713949123
9.8518717712783	0.69355245820380
9.8292609180328	0.69388160685994
9.8067536146549	0.69421457049464
9.7843491514360	0.69455133391314
9.7620468251384	0.69489188168937
9.7398459389214	0.69523619816455
9.7177458022690	0.69558426744564
9.6957457309185	0.69593607340386
9.6738450467893	0.69629159967322
9.6520430779137	0.69665082964899
9.6303391583681	0.69701374648617
9.6087326282051	0.69738033309803
9.5872228333866	0.69775057215456
9.5658091257179	0.69812444608095
9.5444908627826	0.69850193705608
9.5232674078780	0.69888302701099
9.5021381299525	0.69926769762738
9.4811024035421	0.69965593033604
9.4601596087094	0.70004770631538
9.4393091309824	0.70044300648986
9.4185503612944	0.70084181152854
9.3978826959248	0.70124410184348
9.3773055364404	0.70164985758828
9.3568182896380	0.70205905865656
9.3364203674868	0.70247168468047
9.3161111870727	0.70288771502914
9.2958901705426	0.70330712880725
9.2757567450495	0.70372990485353
9.2557103426984	0.70415602173924
9.2357504004929	0.70458545776675
9.2158763602828	0.70501819096805
9.1960876687117	0.70545419910334
9.1763837771656	0.70589345965953
9.1567641417227	0.70633594984886
9.1372282231027	0.70678164660749
9.1177754866180	0.70723052659405
9.0984054021244	0.70768256618831
9.0791174439733	0.70813774148977
9.0599110909640	0.70859602831632
9.0407858262967	0.70905740220288
9.0217411375263	0.70952183840013
9.0027765165165	0.70998931187314
8.9838914593947	0.71045979730013
8.9650854665072	0.71093326907120
8.9463580423754	0.71140970128707
8.9277086956522	0.71188906775787
8.9091369390788	0.71237134200195
8.8906422894425	0.71285649724471
8.8722242675348	0.71334450641743
8.8538823981099	0.71383534215616
8.8356162098438	0.71432897680063
8.8174252352941	0.71482538239315
8.7993090108600	0.71532453067764
8.7812670767428	0.71582639309854
8.7632989769073	0.71633094079988
8.7454042590432	0.71683814462432
8.7275824745269	0.71734797511223
8.7098331783847	0.71786040250082
8.6921559292549	0.71837539672329
8.6745502893519	0.71889292740802
8.6570158244297	0.71941296387777
8.6395521037464	0.71993547514900
8.6221587000288	0.72046042993112
8.6048351894374	0.72098779662587
8.5875811515325	0.72151754332666
8.5703961692396	0.72204963781806
8.5532798288160	0.72258404757520
8.5362317198178	0.72312073976332
8.5192514350668	0.72365968123734
8.5023385706183	0.72420083854144
8.4854927257288	0.72474417790869
8.4687135028249	0.72528966526081
8.4520005074711	0.72583726620787
8.4353533483399	0.72638694604812
8.4187716371806	0.72693866976781
8.4022549887892	0.72749240204112
8.3858030209790	0.72804810723009
8.3694153545505	0.72860574938469
8.3530916132627	0.72916529224281
8.3368314238042	0.72972669923043
8.3206344157646	0.73028993346182
8.3045002216066	0.73085495773974
8.2884284766381	0.73142173455576
8.2724188189845	0.73199022609063
8.2564708895621	0.73256039421471
8.2405843320506	0.73313220048844
8.2247587928669	0.73370560616290
8.2089939211391	0.73428057218045
8.1932893686800	0.73485705917539
8.1776447899618	0.73543502747473
8.1620598420909	0.73601443709900
8.1465341847826	0.73659524776315
8.1310674803363	0.73717741887751
8.1156593936113	0.73776090954883
8.1003095920022	0.73834567858138
8.0850177454153	0.73893168447812
8.0697835262450	0.73951888544200
8.0546066093498	0.74010723937722
8.0394866720300	0.74069670389071
8.0244233940043	0.74128723629356
8.0094164573871	0.74187879360263
