#Parameters = {thARC=0; nARC=2; thsub=1; p=1; nSub=2.75}
#"Wavelength / um"	"T (403) [Real Part]"
#---------------------------------------
14.008993364486	0.78222125959260
13.963318956684	0.78222125510591
13.917941411328	0.78222125054040
13.872857843591	0.78222124589911
13.828065405904	0.78222124118506
13.783561287356	0.78222123640125
13.739342713107	0.78222123155067
13.695406943810	0.78222122663624
13.651751275046	0.78222122166091
13.608373036768	0.78222121662757
13.565269592760	0.78222121153910
13.522438340099	0.78222120639836
13.479876708633	0.78222120120818
13.437582160466	0.78222119597136
13.395552189455	0.78222119069069
13.353784320713	0.78222118536892
13.312276110124	0.78222118000880
13.271025143869	0.78222117461302
13.230029037952	0.78222116918428
13.189285437747	0.78222116372524
13.148792017544	0.78222115823853
13.108546480105	0.78222115272678
13.068546556234	0.78222114719256
13.028790004346	0.78222114163845
12.989274610052	0.78222113606698
12.949998185745	0.78222113048067
12.910958570198	0.78222112488201
12.872153628167	0.78222111927347
12.833581250000	0.78222111365750
12.795239351259	0.78222110803650
12.757125872340	0.78222110241288
12.719238778108	0.78222109678901
12.681576057530	0.78222109116723
12.644135723323	0.78222108554985
12.606915811606	0.78222107993919
12.569914381551	0.78222107433750
12.533129515050	0.78222106874704
12.496559316382	0.78222106317002
12.460201911887	0.78222105760866
12.424055449648	0.78222105206511
12.388118099174	0.78222104654153
12.352388051092	0.78222104104005
12.316863516845	0.78222103556276
12.281542728390	0.78222103011175
12.246423937908	0.78222102468905
12.211505417515	0.78222101929671
12.176785458976	0.78222101393671
12.142262373431	0.78222100861104
12.107934491115	0.78222100332166
12.073800161095	0.78222099807048
12.039857751004	0.78222099285942
12.006105646776	0.78222098769036
11.972542252396	0.78222098256515
11.939165989646	0.78222097748562
11.905975297855	0.78222097245358
11.872968633663	0.78222096747081
11.840144470774	0.78222096253907
11.807501299724	0.78222095766010
11.775037627651	0.78222095283561
11.742751978065	0.78222094806727
11.710642890625	0.78222094335676
11.678708920919	0.78222093870570
11.646948640249	0.78222093411572
11.615360635413	0.78222092958840
11.583943508501	0.78222092512531
11.552695876686	0.78222092072798
11.521616372022	0.78222091639795
11.490703641242	0.78222091213668
11.459956345566	0.78222090794567
11.429373160503	0.78222090382635
11.398952775665	0.78222089978014
11.368693894577	0.78222089580844
11.338595234493	0.78222089191263
11.308655526217	0.78222088809406
11.278873513920	0.78222088435404
11.249247954972	0.78222088069390
11.219777619760	0.78222087711490
11.190461291527	0.78222087361829
11.161297766195	0.78222087020533
11.132285852209	0.78222086687720
11.103424370370	0.78222086363511
11.074712153676	0.78222086048020
11.046148047163	0.78222085741362
11.017730907755	0.78222085443649
10.989459604106	0.78222085154990
10.961333016453	0.78222084875492
10.933350036470	0.78222084605259
10.905509567115	0.78222084344394
10.877810522496	0.78222084092998
10.850251827723	0.78222083851167
10.822832418773	0.78222083618998
10.795551242348	0.78222083396583
10.768407255747	0.78222083184015
10.741399426729	0.78222082981380
10.714526733381	0.78222082788767
10.687788163993	0.78222082606260
10.661182716927	0.78222082433939
10.634709400497	0.78222082271886
10.608367232838	0.78222082120178
10.582155241793	0.78222081978891
10.556072464789	0.78222081848096
10.530117948718	0.78222081727866
10.504290749825	0.78222081618270
10.478589933590	0.78222081519373
10.453014574616	0.78222081431241
10.427563756522	0.78222081353936
10.402236571825	0.78222081287518
10.377032121841	0.78222081232044
10.351949516575	0.78222081187571
10.326987874612	0.78222081154153
10.302146323024	0.78222081131841
10.277423997257	0.78222081120685
10.252820041040	0.78222081120732
10.228333606278	0.78222081132027
10.203963852961	0.78222081154613
10.179709949066	0.78222081188533
10.155571070461	0.78222081233824
10.131546400811	0.78222081290525
10.107635131490	0.78222081358669
10.083836461487	0.78222081438290
10.060149597315	0.78222081529419
10.036573752929	0.78222081632084
10.013108149633	0.78222081746313
9.9897520159947	0.78222081872130
9.9665045877660	0.78222082009559
9.9433651077944	0.78222082158619
9.9203328259431	0.78222082319331
9.8974069990096	0.78222082491712
9.8745868906456	0.78222082675775
9.8518717712783	0.78222082871534
9.8292609180328	0.78222083079001
9.8067536146549	0.78222083298185
9.7843491514360	0.78222083529093
9.7620468251384	0.78222083771730
9.7398459389214	0.78222084026100
9.7177458022690	0.78222084292205
9.6957457309185	0.78222084570044
9.6738450467893	0.78222084859616
9.6520430779137	0.78222085160916
9.6303391583681	0.78222085473939
9.6087326282051	0.78222085798678
9.5872228333866	0.78222086135122
9.5658091257179	0.78222086483261
9.5444908627826	0.78222086843082
9.5232674078780	0.78222087214570
9.5021381299525	0.78222087597709
9.4811024035421	0.78222087992481
9.4601596087094	0.78222088398864
9.4393091309824	0.78222088816839
9.4185503612944	0.78222089246381
9.3978826959248	0.78222089687464
9.3773055364404	0.78222090140064
9.3568182896380	0.78222090604150
9.3364203674868	0.78222091079692
9.3161111870727	0.78222091566660
9.2958901705426	0.78222092065019
9.2757567450495	0.78222092574734
9.2557103426984	0.78222093095768
9.2357504004929	0.78222093628083
9.2158763602828	0.78222094171640
9.1960876687117	0.78222094726396
9.1763837771656	0.78222095292308
9.1567641417227	0.78222095869332
9.1372282231027	0.78222096457421
9.1177754866180	0.78222097056529
9.0984054021244	0.78222097666604
9.0791174439733	0.78222098287597
9.0599110909640	0.78222098919456
9.0407858262967	0.78222099562125
9.0217411375263	0.78222100215552
9.0027765165165	0.78222100879677
8.9838914593947	0.78222101554444
8.9650854665072	0.78222102239792
8.9463580423754	0.78222102935661
8.9277086956522	0.78222103641989
8.9091369390788	0.78222104358710
8.8906422894425	0.78222105085761
8.8722242675348	0.78222105823074
8.8538823981099	0.78222106570581
8.8356162098438	0.78222107328214
8.8174252352941	0.78222108095902
8.7993090108600	0.78222108873572
8.7812670767428	0.78222109661151
8.7632989769073	0.78222110458566
8.7454042590432	0.78222111265739
8.7275824745269	0.78222112082594
8.7098331783847	0.78222112909053
8.6921559292549	0.78222113745036
8.6745502893519	0.78222114590462
8.6570158244297	0.78222115445249
8.6395521037464	0.78222116309314
8.6221587000288	0.78222117182572
8.6048351894374	0.78222118064939
8.5875811515325	0.78222118956327
8.5703961692396	0.78222119856648
8.5532798288160	0.78222120765814
8.5362317198178	0.78222121683734
8.5192514350668	0.78222122610317
8.5023385706183	0.78222123545470
8.4854927257288	0.78222124489101
8.4687135028249	0.78222125441115
8.4520005074711	0.78222126401417
8.4353533483399	0.78222127369909
8.4187716371806	0.78222128346495
8.4022549887892	0.78222129331076
8.3858030209790	0.78222130323551
8.3694153545505	0.78222131323822
8.3530916132627	0.78222132331786
8.3368314238042	0.78222133347341
8.3206344157646	0.78222134370383
8.3045002216066	0.78222135400808
8.2884284766381	0.78222136438511
8.2724188189845	0.78222137483387
8.2564708895621	0.78222138535327
8.2405843320506	0.78222139594224
8.2247587928669	0.78222140659969
8.2089939211391	0.78222141732453
8.1932893686800	0.78222142811566
8.1776447899618	0.78222143897196
8.1620598420909	0.78222144989231
8.1465341847826	0.78222146087559
8.1310674803363	0.78222147192065
8.1156593936113	0.78222148302637
8.1003095920022	0.78222149419158
8.0850177454153	0.78222150541513
8.0697835262450	0.78222151669585
8.0546066093498	0.78222152803258
8.0394866720300	0.78222153942413
8.0244233940043	0.78222155086932
8.0094164573871	0.78222156236696
