#Parameters = {thARC=1; nARC=3; thsub=1; p=1; nSub=2.75}
#"Wavelength / um"	"T (432) [Real Part]"
#---------------------------------------
14.008993364486	0.72005427013503
13.963318956684	0.71993984175036
13.917941411328	0.71982757120762
13.872857843591	0.71971746497854
13.828065405904	0.71960952939493
13.783561287356	0.71950377064886
13.739342713107	0.71940019479279
13.695406943810	0.71929880773980
13.651751275046	0.71919961526374
13.608373036768	0.71910262299942
13.565269592760	0.71900783644277
13.522438340099	0.71891526095103
13.479876708633	0.71882490174298
13.437582160466	0.71873676389906
13.395552189455	0.71865085236162
13.353784320713	0.71856717193506
13.312276110124	0.71848572728606
13.271025143869	0.71840652294376
13.230029037952	0.71832956329996
13.189285437747	0.71825485260929
13.148792017544	0.71818239498942
13.108546480105	0.71811219442129
13.068546556234	0.71804425474923
13.028790004346	0.71797857968122
12.989274610052	0.71791517278905
12.949998185745	0.71785403750852
12.910958570198	0.71779517713963
12.872153628167	0.71773859484677
12.833581250000	0.71768429365894
12.795239351259	0.71763227646987
12.757125872340	0.71758254603828
12.719238778108	0.71753510498802
12.681576057530	0.71748995580826
12.644135723323	0.71744710085370
12.606915811606	0.71740654234471
12.569914381551	0.71736828236751
12.533129515050	0.71733232287440
12.496559316382	0.71729866568385
12.460201911887	0.71726731248073
12.424055449648	0.71723826481645
12.388118099174	0.71721152410914
12.352388051092	0.71718709164379
12.316863516845	0.71716496857242
12.281542728390	0.71714515591426
12.246423937908	0.71712765455585
12.211505417515	0.71711246525121
12.176785458976	0.71709958862202
12.142262373431	0.71708902515771
12.107934491115	0.71708077521562
12.073800161095	0.71707483902113
12.039857751004	0.71707121666782
12.006105646776	0.71706990811755
11.972542252396	0.71707091320061
11.939165989646	0.71707423161583
11.905975297855	0.71707986293071
11.872968633663	0.71708780658151
11.840144470774	0.71709806187338
11.807501299724	0.71711062798045
11.775037627651	0.71712550394593
11.742751978065	0.71714268868222
11.710642890625	0.71716218097097
11.678708920919	0.71718397946320
11.646948640249	0.71720808267937
11.615360635413	0.71723448900947
11.583943508501	0.71726319671307
11.552695876686	0.71729420391942
11.521616372022	0.71732750862749
11.490703641242	0.71736310870607
11.459956345566	0.71740100189379
11.429373160503	0.71744118579920
11.398952775665	0.71748365790081
11.368693894577	0.71752841554713
11.338595234493	0.71757545595675
11.308655526217	0.71762477621833
11.278873513920	0.71767637329067
11.249247954972	0.71773024400273
11.219777619760	0.71778638505366
11.190461291527	0.71784479301280
11.161297766195	0.71790546431977
11.132285852209	0.71796839528439
11.103424370370	0.71803358208678
11.074712153676	0.71810102077732
11.046148047163	0.71817070727666
11.017730907755	0.71824263737576
10.989459604106	0.71831680673584
10.961333016453	0.71839321088841
10.933350036470	0.71847184523526
10.905509567115	0.71855270504845
10.877810522496	0.71863578547027
10.850251827723	0.71872108151327
10.822832418773	0.71880858806023
10.795551242348	0.71889829986412
10.768407255747	0.71899021154807
10.741399426729	0.71908431760541
10.714526733381	0.71918061239957
10.687788163993	0.71927909016407
10.661182716927	0.71937974500254
10.634709400497	0.71948257088859
10.608367232838	0.71958756166589
10.582155241793	0.71969471104803
10.556072464789	0.71980401261854
10.530117948718	0.71991545983085
10.504290749825	0.72002904600823
10.478589933590	0.72014476434376
10.453014574616	0.72026260790029
10.427563756522	0.72038256961037
10.402236571825	0.72050464227625
10.377032121841	0.72062881856983
10.351949516575	0.72075509103256
10.326987874612	0.72088345207546
10.302146323024	0.72101389397907
10.277423997257	0.72114640889336
10.252820041040	0.72128098883773
10.228333606278	0.72141762570095
10.203963852961	0.72155631124113
10.179709949066	0.72169703708565
10.155571070461	0.72183979473115
10.131546400811	0.72198457554349
10.107635131490	0.72213137075769
10.083836461487	0.72228017147791
10.060149597315	0.72243096867742
10.036573752929	0.72258375319855
10.013108149633	0.72273851575268
9.9897520159947	0.72289524692022
9.9665045877660	0.72305393715054
9.9433651077944	0.72321457676199
9.9203328259431	0.72337715594189
9.8974069990096	0.72354166474648
9.8745868906456	0.72370809310091
9.8518717712783	0.72387643079928
9.8292609180328	0.72404666750456
9.8067536146549	0.72421879274866
9.7843491514360	0.72439279593239
9.7620468251384	0.72456866632550
9.7398459389214	0.72474639306666
9.7177458022690	0.72492596516349
9.6957457309185	0.72510737149262
9.6738450467893	0.72529060079965
9.6520430779137	0.72547564169925
9.6303391583681	0.72566248267515
9.6087326282051	0.72585111208024
9.5872228333866	0.72604151813655
9.5658091257179	0.72623368893539
9.5444908627826	0.72642761243735
9.5232674078780	0.72662327647242
9.5021381299525	0.72682066874003
9.4811024035421	0.72701977680919
9.4601596087094	0.72722058811853
9.4393091309824	0.72742308997642
9.4185503612944	0.72762726956112
9.3978826959248	0.72783311392084
9.3773055364404	0.72804060997392
9.3568182896380	0.72824974450894
9.3364203674868	0.72846050418486
9.3161111870727	0.72867287553121
9.2958901705426	0.72888684494821
9.2757567450495	0.72910239870700
9.2557103426984	0.72931952294977
9.2357504004929	0.72953820369001
9.2158763602828	0.72975842681265
9.1960876687117	0.72998017807435
9.1763837771656	0.73020344310367
9.1567641417227	0.73042820740137
9.1372282231027	0.73065445634058
9.1177754866180	0.73088217516715
9.0984054021244	0.73111134899985
9.0791174439733	0.73134196283071
9.0599110909640	0.73157400152529
9.0407858262967	0.73180744982301
9.0217411375263	0.73204229233748
9.0027765165165	0.73227851355679
8.9838914593947	0.73251609784394
8.9650854665072	0.73275502943713
8.9463580423754	0.73299529245021
8.9277086956522	0.73323687087300
8.9091369390788	0.73347974857176
8.8906422894425	0.73372390928957
8.8722242675348	0.73396933664680
8.8538823981099	0.73421601414154
8.8356162098438	0.73446392515008
8.8174252352941	0.73471305292738
8.7993090108600	0.73496338060758
8.7812670767428	0.73521489120450
8.7632989769073	0.73546756761221
8.7454042590432	0.73572139260551
8.7275824745269	0.73597634884056
8.7098331783847	0.73623241885543
8.6921559292549	0.73648958507067
8.6745502893519	0.73674782979000
8.6570158244297	0.73700713520086
8.6395521037464	0.73726748337510
8.6221587000288	0.73752885626965
8.6048351894374	0.73779123572719
8.5875811515325	0.73805460347687
8.5703961692396	0.73831894113501
8.5532798288160	0.73858423020586
8.5362317198178	0.73885045208232
8.5192514350668	0.73911758804679
8.5023385706183	0.73938561927190
8.4854927257288	0.73965452682135
8.4687135028249	0.73992429165074
8.4520005074711	0.74019489460845
8.4353533483399	0.74046631643646
8.4187716371806	0.74073853777131
8.4022549887892	0.74101153914496
8.3858030209790	0.74128530098575
8.3694153545505	0.74155980361936
8.3530916132627	0.74183502726977
8.3368314238042	0.74211095206025
8.3206344157646	0.74238755801440
8.3045002216066	0.74266482505718
8.2884284766381	0.74294273301594
8.2724188189845	0.74322126162156
8.2564708895621	0.74350039050947
8.2405843320506	0.74378009922085
8.2247587928669	0.74406036720371
8.2089939211391	0.74434117381410
8.1932893686800	0.74462249831727
8.1776447899618	0.74490431988889
8.1620598420909	0.74518661761627
8.1465341847826	0.74546937049961
8.1310674803363	0.74575255745330
8.1156593936113	0.74603615730717
8.1003095920022	0.74632014880787
8.0850177454153	0.74660451062012
8.0697835262450	0.74688922132816
8.0546066093498	0.74717425943708
8.0394866720300	0.74745960337425
8.0244233940043	0.74774523149073
8.0094164573871	0.74803112206274
