#Parameters = {thARC=0.8; nARC=3; thsub=1; p=1; nSub=2.75}
#"Wavelength / um"	"T (431) [Real Part]"
#---------------------------------------
14.008993364486	0.73077427294395
13.963318956684	0.73059228244740
13.917941411328	0.73041122278162
13.872857843591	0.73023110222814
13.828065405904	0.73005192900267
13.783561287356	0.72987371125508
13.739342713107	0.72969645706939
13.695406943810	0.72952017446374
13.651751275046	0.72934487139038
13.608373036768	0.72917055573572
13.565269592760	0.72899723532027
13.522438340099	0.72882491789868
13.479876708633	0.72865361115975
13.437582160466	0.72848332272644
13.395552189455	0.72831406015590
13.353784320713	0.72814583093950
13.312276110124	0.72797864250283
13.271025143869	0.72781250220577
13.230029037952	0.72764741734249
13.189285437747	0.72748339514152
13.148792017544	0.72732044276578
13.108546480105	0.72715856731265
13.068546556234	0.72699777581397
13.028790004346	0.72683807523616
12.989274610052	0.72667947248020
12.949998185745	0.72652197438178
12.910958570198	0.72636558771129
12.872153628167	0.72621031917391
12.833581250000	0.72605617540971
12.795239351259	0.72590316299367
12.757125872340	0.72575128843579
12.719238778108	0.72560055818114
12.681576057530	0.72545097860999
12.644135723323	0.72530255603783
12.606915811606	0.72515529671549
12.569914381551	0.72500920682921
12.533129515050	0.72486429250076
12.496559316382	0.72472055978749
12.460201911887	0.72457801468245
12.424055449648	0.72443666311446
12.388118099174	0.72429651094823
12.352388051092	0.72415756398445
12.316863516845	0.72401982795990
12.281542728390	0.72388330854751
12.246423937908	0.72374801135652
12.211505417515	0.72361394193254
12.176785458976	0.72348110575768
12.142262373431	0.72334950825064
12.107934491115	0.72321915476683
12.073800161095	0.72309005059848
12.039857751004	0.72296220097472
12.006105646776	0.72283561106175
11.972542252396	0.72271028596289
11.939165989646	0.72258623071872
11.905975297855	0.72246345030721
11.872968633663	0.72234194964380
11.840144470774	0.72222173358153
11.807501299724	0.72210280691117
11.775037627651	0.72198517436132
11.742751978065	0.72186884059850
11.710642890625	0.72175381022734
11.678708920919	0.72164008779062
11.646948640249	0.72152767776941
11.615360635413	0.72141658458324
11.583943508501	0.72130681259012
11.552695876686	0.72119836608675
11.521616372022	0.72109124930859
11.490703641242	0.72098546642997
11.459956345566	0.72088102156425
11.429373160503	0.72077791876390
11.398952775665	0.72067616202062
11.368693894577	0.72057575526549
11.338595234493	0.72047670236904
11.308655526217	0.72037900714142
11.278873513920	0.72028267333245
11.249247954972	0.72018770463182
11.219777619760	0.72009410466911
11.190461291527	0.72000187701400
11.161297766195	0.71991102517631
11.132285852209	0.71982155260616
11.103424370370	0.71973346269406
11.074712153676	0.71964675877104
11.046148047163	0.71956144410873
11.017730907755	0.71947752191954
10.989459604106	0.71939499535668
10.961333016453	0.71931386751435
10.933350036470	0.71923414142779
10.905509567115	0.71915582007345
10.877810522496	0.71907890636903
10.850251827723	0.71900340317365
10.822832418773	0.71892931328789
10.795551242348	0.71885663945398
10.768407255747	0.71878538435581
10.741399426729	0.71871555061912
10.714526733381	0.71864714081154
10.687788163993	0.71858015744271
10.661182716927	0.71851460296441
10.634709400497	0.71845047977061
10.608367232838	0.71838779019760
10.582155241793	0.71832653652409
10.556072464789	0.71826672097127
10.530117948718	0.71820834570296
10.504290749825	0.71815141282565
10.478589933590	0.71809592438864
10.453014574616	0.71804188238407
10.427563756522	0.71798928874710
10.402236571825	0.71793814535590
10.377032121841	0.71788845403181
10.351949516575	0.71784021653939
10.326987874612	0.71779343458652
10.302146323024	0.71774810982448
10.277423997257	0.71770424384804
10.252820041040	0.71766183819552
10.228333606278	0.71762089434888
10.203963852961	0.71758141373382
10.179709949066	0.71754339771983
10.155571070461	0.71750684762027
10.131546400811	0.71747176469246
10.107635131490	0.71743815013774
10.083836461487	0.71740600510155
10.060149597315	0.71737533067347
10.036573752929	0.71734612788736
10.013108149633	0.71731839772133
9.9897520159947	0.71729214109792
9.9665045877660	0.71726735888405
9.9433651077944	0.71724405189116
9.9203328259431	0.71722222087526
9.8974069990096	0.71720186653697
9.8745868906456	0.71718298952160
9.8518717712783	0.71716559041918
9.8292609180328	0.71714966976457
9.8067536146549	0.71713522803745
9.7843491514360	0.71712226566242
9.7620468251384	0.71711078300906
9.7398459389214	0.71710078039191
9.7177458022690	0.71709225807063
9.6957457309185	0.71708521624995
9.6738450467893	0.71707965507977
9.6520430779137	0.71707557465520
9.6303391583681	0.71707297501660
9.6087326282051	0.71707185614960
9.5872228333866	0.71707221798520
9.5658091257179	0.71707406039974
9.5444908627826	0.71707738321501
9.5232674078780	0.71708218619822
9.5021381299525	0.71708846906211
9.4811024035421	0.71709623146491
9.4601596087094	0.71710547301044
9.4393091309824	0.71711619324809
9.4185503612944	0.71712839167292
9.3978826959248	0.71714206772560
9.3773055364404	0.71715722079251
9.3568182896380	0.71717385020577
9.3364203674868	0.71719195524320
9.3161111870727	0.71721153512844
9.2958901705426	0.71723258903089
9.2757567450495	0.71725511606580
9.2557103426984	0.71727911529423
9.2357504004929	0.71730458572315
9.2158763602828	0.71733152630538
9.1960876687117	0.71735993593967
9.1763837771656	0.71738981347070
9.1567641417227	0.71742115768907
9.1372282231027	0.71745396733136
9.1177754866180	0.71748824108014
9.0984054021244	0.71752397756394
9.0791174439733	0.71756117535732
9.0599110909640	0.71759983298086
9.0407858262967	0.71763994890116
9.0217411375263	0.71768152153087
9.0027765165165	0.71772454922871
8.9838914593947	0.71776903029944
8.9650854665072	0.71781496299389
8.9463580423754	0.71786234550901
8.9277086956522	0.71791117598779
8.9091369390788	0.71796145251936
8.8906422894425	0.71801317313891
8.8722242675348	0.71806633582777
8.8538823981099	0.71812093851337
8.8356162098438	0.71817697906925
8.8174252352941	0.71823445531507
8.7993090108600	0.71829336501662
8.7812670767428	0.71835370588580
8.7632989769073	0.71841547558066
8.7454042590432	0.71847867170536
8.7275824745269	0.71854329181017
8.7098331783847	0.71860933339153
8.6921559292549	0.71867679389198
8.6745502893519	0.71874567070019
8.6570158244297	0.71881596115095
8.6395521037464	0.71888766252519
8.6221587000288	0.71896077204996
8.6048351894374	0.71903528689843
8.5875811515325	0.71911120418988
8.5703961692396	0.71918852098972
8.5532798288160	0.71926723430946
8.5362317198178	0.71934734110674
8.5192514350668	0.71942883828529
8.5023385706183	0.71951172269495
8.4854927257288	0.71959599113167
8.4687135028249	0.71968164033750
8.4520005074711	0.71976866700057
8.4353533483399	0.71985706775512
8.4187716371806	0.71994683918146
8.4022549887892	0.72003797780600
8.3858030209790	0.72013048010124
8.3694153545505	0.72022434248574
8.3530916132627	0.72031956132415
8.3368314238042	0.72041613292719
8.3206344157646	0.72051405355165
8.3045002216066	0.72061331940041
8.2884284766381	0.72071392662238
8.2724188189845	0.72081587131257
8.2564708895621	0.72091914951204
8.2405843320506	0.72102375720792
8.2247587928669	0.72112969033341
8.2089939211391	0.72123694476777
8.1932893686800	0.72134551633631
8.1776447899618	0.72145540081042
8.1620598420909	0.72156659390757
8.1465341847826	0.72167909129127
8.1310674803363	0.72179288857114
8.1156593936113	0.72190798130284
8.1003095920022	0.72202436498814
8.0850177454153	0.72214203507487
8.0697835262450	0.72226098695697
8.0546066093498	0.72238121597447
8.0394866720300	0.72250271741351
8.0244233940043	0.72262548650634
8.0094164573871	0.72274951843133
