#Parameters = {thARC=0.8; nARC=1; thsub=1; p=1; nSub=3}
#"Wavelength / um"	"T (437) [Real Part]"
#---------------------------------------
14.008993364486	0.75039771015288
13.963318956684	0.75041157255979
13.917941411328	0.75042491993321
13.872857843591	0.75043776010387
13.828065405904	0.75045010084766
13.783561287356	0.75046194988544
13.739342713107	0.75047331488286
13.695406943810	0.75048420345022
13.651751275046	0.75049462314230
13.608373036768	0.75050458145825
13.565269592760	0.75051408584140
13.522438340099	0.75052314367917
13.479876708633	0.75053176230292
13.437582160466	0.75053994898787
13.395552189455	0.75054771095294
13.353784320713	0.75055505536072
13.312276110124	0.75056198931727
13.271025143869	0.75056851987216
13.230029037952	0.75057465401827
13.189285437747	0.75058039869181
13.148792017544	0.75058576077220
13.108546480105	0.75059074708201
13.068546556234	0.75059536438692
13.028790004346	0.75059961939572
12.989274610052	0.75060351876016
12.949998185745	0.75060706907502
12.910958570198	0.75061027687803
12.872153628167	0.75061314864985
12.833581250000	0.75061569081410
12.795239351259	0.75061790973729
12.757125872340	0.75061981172885
12.719238778108	0.75062140304116
12.681576057530	0.75062268986949
12.644135723323	0.75062367835210
12.606915811606	0.75062437457020
12.569914381551	0.75062478454801
12.533129515050	0.75062491425277
12.496559316382	0.75062476959483
12.460201911887	0.75062435642763
12.424055449648	0.75062368054779
12.388118099174	0.75062274769518
12.352388051092	0.75062156355294
12.316863516845	0.75062013374759
12.281542728390	0.75061846384908
12.246423937908	0.75061655937088
12.211505417515	0.75061442577006
12.176785458976	0.75061206844738
12.142262373431	0.75060949274740
12.107934491115	0.75060670395854
12.073800161095	0.75060370731325
12.039857751004	0.75060050798805
12.006105646776	0.75059711110368
11.972542252396	0.75059352172525
11.939165989646	0.75058974486230
11.905975297855	0.75058578546900
11.872968633663	0.75058164844421
11.840144470774	0.75057733863169
11.807501299724	0.75057286082019
11.775037627651	0.75056821974363
11.742751978065	0.75056342008125
11.710642890625	0.75055846645775
11.678708920919	0.75055336344348
11.646948640249	0.75054811555455
11.615360635413	0.75054272725310
11.583943508501	0.75053720294735
11.552695876686	0.75053154699188
11.521616372022	0.75052576368776
11.490703641242	0.75051985728275
11.459956345566	0.75051383197152
11.429373160503	0.75050769189575
11.398952775665	0.75050144114446
11.368693894577	0.75049508375410
11.338595234493	0.75048862370881
11.308655526217	0.75048206494063
11.278873513920	0.75047541132969
11.249247954972	0.75046866670445
11.219777619760	0.75046183484188
11.190461291527	0.75045491946773
11.161297766195	0.75044792425673
11.132285852209	0.75044085283281
11.103424370370	0.75043370876937
11.074712153676	0.75042649558948
11.046148047163	0.75041921676613
11.017730907755	0.75041187572246
10.989459604106	0.75040447583203
10.961333016453	0.75039702041907
10.933350036470	0.75038951275868
10.905509567115	0.75038195607714
10.877810522496	0.75037435355213
10.850251827723	0.75036670831302
10.822832418773	0.75035902344110
10.795551242348	0.75035130196985
10.768407255747	0.75034354688522
10.741399426729	0.75033576112590
10.714526733381	0.75032794758357
10.687788163993	0.75032010910319
10.661182716927	0.75031224848326
10.634709400497	0.75030436847614
10.608367232838	0.75029647178826
10.582155241793	0.75028856108047
10.556072464789	0.75028063896827
10.530117948718	0.75027270802215
10.504290749825	0.75026477076782
10.478589933590	0.75025682968656
10.453014574616	0.75024888721545
10.427563756522	0.75024094574772
10.402236571825	0.75023300763301
10.377032121841	0.75022507517767
10.351949516575	0.75021715064509
10.326987874612	0.75020923625595
10.302146323024	0.75020133418856
10.277423997257	0.75019344657915
10.252820041040	0.75018557552219
10.228333606278	0.75017772307067
10.203963852961	0.75016989123643
10.179709949066	0.75016208199044
10.155571070461	0.75015429726316
10.131546400811	0.75014653894480
10.107635131490	0.75013880888565
10.083836461487	0.75013110889643
10.060149597315	0.75012344074854
10.036573752929	0.75011580617443
10.013108149633	0.75010820686788
9.9897520159947	0.75010064448433
9.9665045877660	0.75009312064123
9.9433651077944	0.75008563691830
9.9203328259431	0.75007819485790
9.8974069990096	0.75007079596532
9.8745868906456	0.75006344170913
9.8518717712783	0.75005613352148
9.8292609180328	0.75004887279842
9.8067536146549	0.75004166090023
9.7843491514360	0.75003449915178
9.7620468251384	0.75002738884279
9.7398459389214	0.75002033122820
9.7177458022690	0.75001332752848
9.6957457309185	0.75000637892995
9.6738450467893	0.74999948658514
9.6520430779137	0.74999265161306
9.6303391583681	0.74998587509957
9.6087326282051	0.74997915809772
9.5872228333866	0.74997250162801
9.5658091257179	0.74996590667879
9.5444908627826	0.74995937420654
9.5232674078780	0.74995290513624
9.5021381299525	0.74994650036163
9.4811024035421	0.74994016074561
9.4601596087094	0.74993388712054
9.4393091309824	0.74992768028855
9.4185503612944	0.74992154102189
9.3978826959248	0.74991547006324
9.3773055364404	0.74990946812606
9.3568182896380	0.74990353589488
9.3364203674868	0.74989767402568
9.3161111870727	0.74989188314615
9.2958901705426	0.74988616385609
9.2757567450495	0.74988051672766
9.2557103426984	0.74987494230576
9.2357504004929	0.74986944110834
9.2158763602828	0.74986401362671
9.1960876687117	0.74985866032588
9.1763837771656	0.74985338164487
9.1567641417227	0.74984817799704
9.1372282231027	0.74984304977044
9.1177754866180	0.74983799732806
9.0984054021244	0.74983302100822
9.0791174439733	0.74982812112487
9.0599110909640	0.74982329796788
9.0407858262967	0.74981855180340
9.0217411375263	0.74981388287416
9.0027765165165	0.74980929139979
8.9838914593947	0.74980477757712
8.9650854665072	0.74980034158052
8.9463580423754	0.74979598356220
8.9277086956522	0.74979170365254
8.9091369390788	0.74978750196037
8.8906422894425	0.74978337857333
8.8722242675348	0.74977933355812
8.8538823981099	0.74977536696088
8.8356162098438	0.74977147880744
8.8174252352941	0.74976766910364
8.7993090108600	0.74976393783567
8.7812670767428	0.74976028497034
8.7632989769073	0.74975671045542
8.7454042590432	0.74975321421987
8.7275824745269	0.74974979617425
8.7098331783847	0.74974645621093
8.6921559292549	0.74974319420443
8.6745502893519	0.74974001001171
8.6570158244297	0.74973690347247
8.6395521037464	0.74973387440945
8.6221587000288	0.74973092262873
8.6048351894374	0.74972804791998
8.5875811515325	0.74972525005683
8.5703961692396	0.74972252879707
8.5532798288160	0.74971988388302
8.5362317198178	0.74971731504176
8.5192514350668	0.74971482198546
8.5023385706183	0.74971240441163
8.4854927257288	0.74971006200342
8.4687135028249	0.74970779442991
8.4520005074711	0.74970560134637
8.4353533483399	0.74970348239455
8.4187716371806	0.74970143720297
8.4022549887892	0.74969946538715
8.3858030209790	0.74969756654996
8.3694153545505	0.74969574028182
8.3530916132627	0.74969398616102
8.3368314238042	0.74969230375396
8.3206344157646	0.74969069261542
8.3045002216066	0.74968915228886
8.2884284766381	0.74968768230665
8.2724188189845	0.74968628219032
8.2564708895621	0.74968495145087
8.2405843320506	0.74968368958900
8.2247587928669	0.74968249609536
8.2089939211391	0.74968137045083
8.1932893686800	0.74968031212674
8.1776447899618	0.74967932058517
8.1620598420909	0.74967839527915
8.1465341847826	0.74967753565297
8.1310674803363	0.74967674114234
8.1156593936113	0.74967601117473
8.1003095920022	0.74967534516954
8.0850177454153	0.74967474253840
8.0697835262450	0.74967420268535
8.0546066093498	0.74967372500712
8.0394866720300	0.74967330889336
8.0244233940043	0.74967295372688
8.0094164573871	0.74967265888384
