#Parameters = {thARC=0; nARC=1.5; thsub=1; p=1; nSub=3}
#"Wavelength / um"	"T (445) [Real Part]"
#---------------------------------------
14.008993364486	0.75003359840838
13.963318956684	0.75003455319890
13.917941411328	0.75003544967804
13.872857843591	0.75003628919993
13.828065405904	0.75003707310071
13.783561287356	0.75003780269860
13.739342713107	0.75003847929406
13.695406943810	0.75003910416989
13.651751275046	0.75003967859136
13.608373036768	0.75004020380636
13.565269592760	0.75004068104547
13.522438340099	0.75004111152213
13.479876708633	0.75004149643274
13.437582160466	0.75004183695679
13.395552189455	0.75004213425699
13.353784320713	0.75004238947939
13.312276110124	0.75004260375349
13.271025143869	0.75004277819238
13.230029037952	0.75004291389286
13.189285437747	0.75004301193557
13.148792017544	0.75004307338510
13.108546480105	0.75004309929013
13.068546556234	0.75004309068352
13.028790004346	0.75004304858250
12.989274610052	0.75004297398870
12.949998185745	0.75004286788839
12.910958570198	0.75004273125248
12.872153628167	0.75004256503674
12.833581250000	0.75004237018189
12.795239351259	0.75004214761369
12.757125872340	0.75004189824312
12.719238778108	0.75004162296649
12.681576057530	0.75004132266551
12.644135723323	0.75004099820749
12.606915811606	0.75004065044541
12.569914381551	0.75004028021807
12.533129515050	0.75003988835020
12.496559316382	0.75003947565258
12.460201911887	0.75003904292218
12.424055449648	0.75003859094225
12.388118099174	0.75003812048249
12.352388051092	0.75003763229911
12.316863516845	0.75003712713502
12.281542728390	0.75003660571990
12.246423937908	0.75003606877034
12.211505417515	0.75003551698996
12.176785458976	0.75003495106953
12.142262373431	0.75003437168709
12.107934491115	0.75003377950808
12.073800161095	0.75003317518544
12.039857751004	0.75003255935974
12.006105646776	0.75003193265933
11.972542252396	0.75003129570039
11.939165989646	0.75003064908711
11.905975297855	0.75002999341179
11.872968633663	0.75002932925496
11.840144470774	0.75002865718547
11.807501299724	0.75002797776066
11.775037627651	0.75002729152644
11.742751978065	0.75002659901742
11.710642890625	0.75002590075703
11.678708920919	0.75002519725761
11.646948640249	0.75002448902056
11.615360635413	0.75002377653646
11.583943508501	0.75002306028514
11.552695876686	0.75002234073585
11.521616372022	0.75002161834732
11.490703641242	0.75002089356793
11.459956345566	0.75002016683578
11.429373160503	0.75001943857883
11.398952775665	0.75001870921501
11.368693894577	0.75001797915231
11.338595234493	0.75001724878892
11.308655526217	0.75001651851334
11.278873513920	0.75001578870446
11.249247954972	0.75001505973172
11.219777619760	0.75001433195519
11.190461291527	0.75001360572567
11.161297766195	0.75001288138483
11.132285852209	0.75001215926530
11.103424370370	0.75001143969080
11.074712153676	0.75001072297622
11.046148047163	0.75001000942774
11.017730907755	0.75000929934294
10.989459604106	0.75000859301091
10.961333016453	0.75000789071237
10.933350036470	0.75000719271973
10.905509567115	0.75000649929724
10.877810522496	0.75000581070109
10.850251827723	0.75000512717949
10.822832418773	0.75000444897281
10.795551242348	0.75000377631365
10.768407255747	0.75000310942695
10.741399426729	0.75000244853013
10.714526733381	0.75000179383313
10.687788163993	0.75000114553858
10.661182716927	0.75000050384184
10.634709400497	0.74999986893113
10.608367232838	0.74999924098765
10.582155241793	0.74999862018564
10.556072464789	0.74999800669250
10.530117948718	0.74999740066887
10.504290749825	0.74999680226879
10.478589933590	0.74999621163970
10.453014574616	0.74999562892262
10.427563756522	0.74999505425222
10.402236571825	0.74999448775688
10.377032121841	0.74999392955885
10.351949516575	0.74999337977429
10.326987874612	0.74999283851341
10.302146323024	0.74999230588052
10.277423997257	0.74999178197415
10.252820041040	0.74999126688715
10.228333606278	0.74999076070673
10.203963852961	0.74999026351465
10.179709949066	0.74998977538719
10.155571070461	0.74998929639534
10.131546400811	0.74998882660484
10.107635131490	0.74998836607629
10.083836461487	0.74998791486520
10.060149597315	0.74998747302215
10.036573752929	0.74998704059280
10.013108149633	0.74998661761802
9.9897520159947	0.74998620413399
9.9665045877660	0.74998580017222
9.9433651077944	0.74998540575973
9.9203328259431	0.74998502091904
9.8974069990096	0.74998464566831
9.8745868906456	0.74998428002143
9.8518717712783	0.74998392398806
9.8292609180328	0.74998357757373
9.8067536146549	0.74998324077996
9.7843491514360	0.74998291360426
9.7620468251384	0.74998259604030
9.7398459389214	0.74998228807792
9.7177458022690	0.74998198970325
9.6957457309185	0.74998170089876
9.6738450467893	0.74998142164336
9.6520430779137	0.74998115191248
9.6303391583681	0.74998089167811
9.6087326282051	0.74998064090892
9.5872228333866	0.74998039957032
9.5658091257179	0.74998016762451
9.5444908627826	0.74997994503059
9.5232674078780	0.74997973174462
9.5021381299525	0.74997952771968
9.4811024035421	0.74997933290596
9.4601596087094	0.74997914725083
9.4393091309824	0.74997897069889
9.4185503612944	0.74997880319207
9.3978826959248	0.74997864466968
9.3773055364404	0.74997849506848
9.3568182896380	0.74997835432276
9.3364203674868	0.74997822236438
9.3161111870727	0.74997809912289
9.2958901705426	0.74997798452553
9.2757567450495	0.74997787849735
9.2557103426984	0.74997778096124
9.2357504004929	0.74997769183803
9.2158763602828	0.74997761104651
9.1960876687117	0.74997753850351
9.1763837771656	0.74997747412400
9.1567641417227	0.74997741782109
9.1372282231027	0.74997736950614
9.1177754866180	0.74997732908878
9.0984054021244	0.74997729647702
9.0791174439733	0.74997727157726
9.0599110909640	0.74997725429437
9.0407858262967	0.74997724453176
9.0217411375263	0.74997724219142
9.0027765165165	0.74997724717398
8.9838914593947	0.74997725937877
8.9650854665072	0.74997727870388
8.9463580423754	0.74997730504618
8.9277086956522	0.74997733830145
8.9091369390788	0.74997737836435
8.8906422894425	0.74997742512853
8.8722242675348	0.74997747848665
8.8538823981099	0.74997753833044
8.8356162098438	0.74997760455077
8.8174252352941	0.74997767703769
8.7993090108600	0.74997775568044
8.7812670767428	0.74997784036758
8.7632989769073	0.74997793098697
8.7454042590432	0.74997802742583
8.7275824745269	0.74997812957083
8.7098331783847	0.74997823730807
8.6921559292549	0.74997835052320
8.6745502893519	0.74997846910139
8.6570158244297	0.74997859292743
8.6395521037464	0.74997872188576
8.6221587000288	0.74997885586051
8.6048351894374	0.74997899473553
8.5875811515325	0.74997913839446
8.5703961692396	0.74997928672075
8.5532798288160	0.74997943959771
8.5362317198178	0.74997959690854
8.5192514350668	0.74997975853640
8.5023385706183	0.74997992436441
8.4854927257288	0.74998009427573
8.4687135028249	0.74998026815353
8.4520005074711	0.74998044588114
8.4353533483399	0.74998062734195
8.4187716371806	0.74998081241957
8.4022549887892	0.74998100099780
8.3858030209790	0.74998119296065
8.3694153545505	0.74998138819244
8.3530916132627	0.74998158657777
8.3368314238042	0.74998178800159
8.3206344157646	0.74998199234923
8.3045002216066	0.74998219950641
8.2884284766381	0.74998240935931
8.2724188189845	0.74998262179455
8.2564708895621	0.74998283669926
8.2405843320506	0.74998305396111
8.2247587928669	0.74998327346831
8.2089939211391	0.74998349510967
8.1932893686800	0.74998371877460
8.1776447899618	0.74998394435319
8.1620598420909	0.74998417173614
8.1465341847826	0.74998440081491
8.1310674803363	0.74998463148164
8.1156593936113	0.74998486362924
8.1003095920022	0.74998509715137
8.0850177454153	0.74998533194252
8.0697835262450	0.74998556789798
8.0546066093498	0.74998580491389
8.0394866720300	0.74998604288726
8.0244233940043	0.74998628171599
8.0094164573871	0.74998652129888
