#Parameters = {thARC=0; nARC=1.5; thsub=1; p=1; nSub=3.5}
#"Wavelength / um"	"T (553) [Real Part]"
#---------------------------------------
14.008993364486	0.69151597112809
13.963318956684	0.69152104427066
13.917941411328	0.69152588254378
13.872857843591	0.69153049029668
13.828065405904	0.69153487183573
13.783561287356	0.69153903142459
13.739342713107	0.69154297328431
13.695406943810	0.69154670159344
13.651751275046	0.69155022048816
13.608373036768	0.69155353406236
13.565269592760	0.69155664636782
13.522438340099	0.69155956141426
13.479876708633	0.69156228316954
13.437582160466	0.69156481555973
13.395552189455	0.69156716246928
13.353784320713	0.69156932774114
13.312276110124	0.69157131517689
13.271025143869	0.69157312853690
13.230029037952	0.69157477154044
13.189285437747	0.69157624786586
13.148792017544	0.69157756115074
13.108546480105	0.69157871499199
13.068546556234	0.69157971294605
13.028790004346	0.69158055852903
12.989274610052	0.69158125521686
12.949998185745	0.69158180644547
12.910958570198	0.69158221561093
12.872153628167	0.69158248606961
12.833581250000	0.69158262113836
12.795239351259	0.69158262409470
12.757125872340	0.69158249817693
12.719238778108	0.69158224658437
12.681576057530	0.69158187247747
12.644135723323	0.69158137897804
12.606915811606	0.69158076916939
12.569914381551	0.69158004609654
12.533129515050	0.69157921276638
12.496559316382	0.69157827214787
12.460201911887	0.69157722717221
12.424055449648	0.69157608073302
12.388118099174	0.69157483568658
12.352388051092	0.69157349485194
12.316863516845	0.69157206101119
12.281542728390	0.69157053690962
12.246423937908	0.69156892525588
12.211505417515	0.69156722872225
12.176785458976	0.69156544994480
12.142262373431	0.69156359152357
12.107934491115	0.69156165602279
12.073800161095	0.69155964597113
12.039857751004	0.69155756386181
12.006105646776	0.69155541215288
11.972542252396	0.69155319326740
11.939165989646	0.69155090959365
11.905975297855	0.69154856348534
11.872968633663	0.69154615726182
11.840144470774	0.69154369320830
11.807501299724	0.69154117357604
11.775037627651	0.69153860058259
11.742751978065	0.69153597641200
11.710642890625	0.69153330321501
11.678708920919	0.69153058310932
11.646948640249	0.69152781817975
11.615360635413	0.69152501047848
11.583943508501	0.69152216202530
11.552695876686	0.69151927480780
11.521616372022	0.69151635078157
11.490703641242	0.69151339187048
11.459956345566	0.69151039996686
11.429373160503	0.69150737693174
11.398952775665	0.69150432459506
11.368693894577	0.69150124475594
11.338595234493	0.69149813918282
11.308655526217	0.69149500961380
11.278873513920	0.69149185775675
11.249247954972	0.69148868528964
11.219777619760	0.69148549386070
11.190461291527	0.69148228508868
11.161297766195	0.69147906056306
11.132285852209	0.69147582184430
11.103424370370	0.69147257046407
11.074712153676	0.69146930792547
11.046148047163	0.69146603570325
11.017730907755	0.69146275524407
10.989459604106	0.69145946796672
10.961333016453	0.69145617526232
10.933350036470	0.69145287849463
10.905509567115	0.69144957900020
10.877810522496	0.69144627808863
10.850251827723	0.69144297704286
10.822832418773	0.69143967711929
10.795551242348	0.69143637954813
10.768407255747	0.69143308553355
10.741399426729	0.69142979625397
10.714526733381	0.69142651286223
10.687788163993	0.69142323648590
10.661182716927	0.69141996822746
10.634709400497	0.69141670916455
10.608367232838	0.69141346035020
10.582155241793	0.69141022281309
10.556072464789	0.69140699755773
10.530117948718	0.69140378556475
10.504290749825	0.69140058779109
10.478589933590	0.69139740517027
10.453014574616	0.69139423861258
10.427563756522	0.69139108900536
10.402236571825	0.69138795721321
10.377032121841	0.69138484407822
10.351949516575	0.69138175042019
10.326987874612	0.69137867703690
10.302146323024	0.69137562470432
10.277423997257	0.69137259417682
10.252820041040	0.69136958618745
10.228333606278	0.69136660144812
10.203963852961	0.69136364064988
10.179709949066	0.69136070446310
10.155571070461	0.69135779353774
10.131546400811	0.69135490850355
10.107635131490	0.69135204997033
10.083836461487	0.69134921852812
10.060149597315	0.69134641474748
10.036573752929	0.69134363917965
10.013108149633	0.69134089235683
9.9897520159947	0.69133817479240
9.9665045877660	0.69133548698113
9.9433651077944	0.69133282939939
9.9203328259431	0.69133020250543
9.8974069990096	0.69132760673954
9.8745868906456	0.69132504252432
9.8518717712783	0.69132251026489
9.8292609180328	0.69132001034910
9.8067536146549	0.69131754314775
9.7843491514360	0.69131510901484
9.7620468251384	0.69131270828776
9.7398459389214	0.69131034128752
9.7177458022690	0.69130800831899
9.6957457309185	0.69130570967107
9.6738450467893	0.69130344561694
9.6520430779137	0.69130121641428
9.6303391583681	0.69129902230547
9.6087326282051	0.69129686351782
9.5872228333866	0.69129474026377
9.5658091257179	0.69129265274110
9.5444908627826	0.69129060113317
9.5232674078780	0.69128858560909
9.5021381299525	0.69128660632398
9.4811024035421	0.69128466341913
9.4601596087094	0.69128275702224
9.4393091309824	0.69128088724763
9.4185503612944	0.69127905419641
9.3978826959248	0.69127725795675
9.3773055364404	0.69127549860401
9.3568182896380	0.69127377620101
9.3364203674868	0.69127209079819
9.3161111870727	0.69127044243383
9.2958901705426	0.69126883113427
9.2757567450495	0.69126725691405
9.2557103426984	0.69126571977617
9.2357504004929	0.69126421971228
9.2158763602828	0.69126275670283
9.1960876687117	0.69126133071733
9.1763837771656	0.69125994171450
9.1567641417227	0.69125858964247
9.1372282231027	0.69125727443900
9.1177754866180	0.69125599603164
9.0984054021244	0.69125475433793
9.0791174439733	0.69125354926561
9.0599110909640	0.69125238071278
9.0407858262967	0.69125124856809
9.0217411375263	0.69125015271095
9.0027765165165	0.69124909301170
8.9838914593947	0.69124806933177
8.9650854665072	0.69124708152391
8.9463580423754	0.69124612943235
8.9277086956522	0.69124521289295
8.9091369390788	0.69124433173344
8.8906422894425	0.69124348577353
8.8722242675348	0.69124267482517
8.8538823981099	0.69124189869262
8.8356162098438	0.69124115717272
8.8174252352941	0.69124045005501
8.7993090108600	0.69123977712192
8.7812670767428	0.69123913814893
8.7632989769073	0.69123853290476
8.7454042590432	0.69123796115150
8.7275824745269	0.69123742264483
8.7098331783847	0.69123691713413
8.6921559292549	0.69123644436268
8.6745502893519	0.69123600406782
8.6570158244297	0.69123559598110
8.6395521037464	0.69123521982843
8.6221587000288	0.69123487533028
8.6048351894374	0.69123456220180
8.5875811515325	0.69123428015299
8.5703961692396	0.69123402888884
8.5532798288160	0.69123380810952
8.5362317198178	0.69123361751050
8.5192514350668	0.69123345678270
8.5023385706183	0.69123332561267
8.4854927257288	0.69123322368271
8.4687135028249	0.69123315067103
8.4520005074711	0.69123310625189
8.4353533483399	0.69123309009574
8.4187716371806	0.69123310186938
8.4022549887892	0.69123314123610
8.3858030209790	0.69123320785579
8.3694153545505	0.69123330138512
8.3530916132627	0.69123342147765
8.3368314238042	0.69123356778399
8.3206344157646	0.69123373995188
8.3045002216066	0.69123393762643
8.2884284766381	0.69123416045012
8.2724188189845	0.69123440806305
8.2564708895621	0.69123468010298
8.2405843320506	0.69123497620551
8.2247587928669	0.69123529600419
8.2089939211391	0.69123563913066
8.1932893686800	0.69123600521474
8.1776447899618	0.69123639388459
8.1620598420909	0.69123680476680
8.1465341847826	0.69123723748654
8.1310674803363	0.69123769166765
8.1156593936113	0.69123816693278
8.1003095920022	0.69123866290350
8.0850177454153	0.69123917920039
8.0697835262450	0.69123971544319
8.0546066093498	0.69124027125090
8.0394866720300	0.69124084624187
8.0244233940043	0.69124144003393
8.0094164573871	0.69124205224449
