#Parameters = {thARC=0; nARC=3; thsub=1; p=1; nSub=3.5}
#"Wavelength / um"	"T (589) [Real Part]"
#---------------------------------------
14.008993364486	0.69151597112091
13.963318956684	0.69152104426344
13.917941411328	0.69152588253654
13.872857843591	0.69153049028940
13.828065405904	0.69153487182842
13.783561287356	0.69153903141724
13.739342713107	0.69154297327693
13.695406943810	0.69154670158603
13.651751275046	0.69155022048072
13.608373036768	0.69155353405489
13.565269592760	0.69155664636032
13.522438340099	0.69155956140673
13.479876708633	0.69156228316198
13.437582160466	0.69156481555214
13.395552189455	0.69156716246166
13.353784320713	0.69156932773349
13.312276110124	0.69157131516921
13.271025143869	0.69157312852918
13.230029037952	0.69157477153269
13.189285437747	0.69157624785809
13.148792017544	0.69157756114294
13.108546480105	0.69157871498416
13.068546556234	0.69157971293819
13.028790004346	0.69158055852114
12.989274610052	0.69158125520895
12.949998185745	0.69158180643753
12.910958570198	0.69158221560296
12.872153628167	0.69158248606161
12.833581250000	0.69158262113034
12.795239351259	0.69158262408665
12.757125872340	0.69158249816885
12.719238778108	0.69158224657626
12.681576057530	0.69158187246933
12.644135723323	0.69158137896987
12.606915811606	0.69158076916120
12.569914381551	0.69158004608833
12.533129515050	0.69157921275814
12.496559316382	0.69157827213961
12.460201911887	0.69157722716392
12.424055449648	0.69157608072471
12.388118099174	0.69157483567823
12.352388051092	0.69157349484357
12.316863516845	0.69157206100280
12.281542728390	0.69157053690120
12.246423937908	0.69156892524744
12.211505417515	0.69156722871379
12.176785458976	0.69156544993631
12.142262373431	0.69156359151505
12.107934491115	0.69156165601425
12.073800161095	0.69155964596256
12.039857751004	0.69155756385322
12.006105646776	0.69155541214426
11.972542252396	0.69155319325876
11.939165989646	0.69155090958499
11.905975297855	0.69154856347666
11.872968633663	0.69154615725311
11.840144470774	0.69154369319957
11.807501299724	0.69154117356728
11.775037627651	0.69153860057381
11.742751978065	0.69153597640319
11.710642890625	0.69153330320619
11.678708920919	0.69153058310047
11.646948640249	0.69152781817088
11.615360635413	0.69152501046959
11.583943508501	0.69152216201639
11.552695876686	0.69151927479886
11.521616372022	0.69151635077261
11.490703641242	0.69151339186150
11.459956345566	0.69151039995785
11.429373160503	0.69150737692271
11.398952775665	0.69150432458602
11.368693894577	0.69150124474687
11.338595234493	0.69149813917373
11.308655526217	0.69149500960469
11.278873513920	0.69149185774762
11.249247954972	0.69148868528049
11.219777619760	0.69148549385153
11.190461291527	0.69148228507948
11.161297766195	0.69147906055384
11.132285852209	0.69147582183506
11.103424370370	0.69147257045481
11.074712153676	0.69146930791619
11.046148047163	0.69146603569395
11.017730907755	0.69146275523475
10.989459604106	0.69145946795737
10.961333016453	0.69145617525296
10.933350036470	0.69145287848525
10.905509567115	0.69144957899079
10.877810522496	0.69144627807921
10.850251827723	0.69144297703341
10.822832418773	0.69143967710983
10.795551242348	0.69143637953865
10.768407255747	0.69143308552405
10.741399426729	0.69142979624444
10.714526733381	0.69142651285268
10.687788163993	0.69142323647633
10.661182716927	0.69141996821787
10.634709400497	0.69141670915494
10.608367232838	0.69141346034058
10.582155241793	0.69141022280345
10.556072464789	0.69140699754807
10.530117948718	0.69140378555507
10.504290749825	0.69140058778139
10.478589933590	0.69139740516054
10.453014574616	0.69139423860284
10.427563756522	0.69139108899560
10.402236571825	0.69138795720343
10.377032121841	0.69138484406841
10.351949516575	0.69138175041037
10.326987874612	0.69137867702706
10.302146323024	0.69137562469446
10.277423997257	0.69137259416694
10.252820041040	0.69136958617755
10.228333606278	0.69136660143821
10.203963852961	0.69136364063995
10.179709949066	0.69136070445315
10.155571070461	0.69135779352777
10.131546400811	0.69135490849356
10.107635131490	0.69135204996032
10.083836461487	0.69134921851809
10.060149597315	0.69134641473743
10.036573752929	0.69134363916958
10.013108149633	0.69134089234674
9.9897520159947	0.69133817478229
9.9665045877660	0.69133548697100
9.9433651077944	0.69133282938924
9.9203328259431	0.69133020249526
9.8974069990096	0.69132760672935
9.8745868906456	0.69132504251412
9.8518717712783	0.69132251025467
9.8292609180328	0.69132001033885
9.8067536146549	0.69131754313749
9.7843491514360	0.69131510900456
9.7620468251384	0.69131270827746
9.7398459389214	0.69131034127721
9.7177458022690	0.69130800830865
9.6957457309185	0.69130570966071
9.6738450467893	0.69130344560656
9.6520430779137	0.69130121640388
9.6303391583681	0.69129902229506
9.6087326282051	0.69129686350739
9.5872228333866	0.69129474025332
9.5658091257179	0.69129265273063
9.5444908627826	0.69129060112268
9.5232674078780	0.69128858559858
9.5021381299525	0.69128660631345
9.4811024035421	0.69128466340858
9.4601596087094	0.69128275701168
9.4393091309824	0.69128088723704
9.4185503612944	0.69127905418581
9.3978826959248	0.69127725794612
9.3773055364404	0.69127549859337
9.3568182896380	0.69127377619035
9.3364203674868	0.69127209078751
9.3161111870727	0.69127044242314
9.2958901705426	0.69126883112355
9.2757567450495	0.69126725690331
9.2557103426984	0.69126571976542
9.2357504004929	0.69126421970150
9.2158763602828	0.69126275669204
9.1960876687117	0.69126133070652
9.1763837771656	0.69125994170367
9.1567641417227	0.69125858963162
9.1372282231027	0.69125727442813
9.1177754866180	0.69125599602075
9.0984054021244	0.69125475432702
9.0791174439733	0.69125354925468
9.0599110909640	0.69125238070183
9.0407858262967	0.69125124855712
9.0217411375263	0.69125015269996
9.0027765165165	0.69124909300069
8.9838914593947	0.69124806932074
8.9650854665072	0.69124708151286
8.9463580423754	0.69124612942128
8.9277086956522	0.69124521288186
8.9091369390788	0.69124433172233
8.8906422894425	0.69124348576241
8.8722242675348	0.69124267481402
8.8538823981099	0.69124189868145
8.8356162098438	0.69124115716153
8.8174252352941	0.69124045004380
8.7993090108600	0.69123977711069
8.7812670767428	0.69123913813769
8.7632989769073	0.69123853289349
8.7454042590432	0.69123796114022
8.7275824745269	0.69123742263352
8.7098331783847	0.69123691712280
8.6921559292549	0.69123644435134
8.6745502893519	0.69123600405646
8.6570158244297	0.69123559596971
8.6395521037464	0.69123521981703
8.6221587000288	0.69123487531886
8.6048351894374	0.69123456219036
8.5875811515325	0.69123428014152
8.5703961692396	0.69123402887736
8.5532798288160	0.69123380809801
8.5362317198178	0.69123361749897
8.5192514350668	0.69123345677115
8.5023385706183	0.69123332560110
8.4854927257288	0.69123322367113
8.4687135028249	0.69123315065942
8.4520005074711	0.69123310624026
8.4353533483399	0.69123309008409
8.4187716371806	0.69123310185772
8.4022549887892	0.69123314122441
8.3858030209790	0.69123320784408
8.3694153545505	0.69123330137339
8.3530916132627	0.69123342146590
8.3368314238042	0.69123356777221
8.3206344157646	0.69123373994009
8.3045002216066	0.69123393761462
8.2884284766381	0.69123416043829
8.2724188189845	0.69123440805119
8.2564708895621	0.69123468009110
8.2405843320506	0.69123497619361
8.2247587928669	0.69123529599228
8.2089939211391	0.69123563911872
8.1932893686800	0.69123600520278
8.1776447899618	0.69123639387261
8.1620598420909	0.69123680475480
8.1465341847826	0.69123723747452
8.1310674803363	0.69123769165561
8.1156593936113	0.69123816692072
8.1003095920022	0.69123866289141
8.0850177454153	0.69123917918828
8.0697835262450	0.69123971543107
8.0546066093498	0.69124027123875
8.0394866720300	0.69124084622970
8.0244233940043	0.69124144002174
8.0094164573871	0.69124205223228
