#Parameters = {thARC=0.6; nARC=1; thsub=1; p=1; nSub=3.75}
#"Wavelength / um"	"T (598) [Real Part]"
#---------------------------------------
14.008993364486	0.66541416632846
13.963318956684	0.66543363741482
13.917941411328	0.66545224318076
13.872857843591	0.66546999852299
13.828065405904	0.66548691822867
13.783561287356	0.66550301697489
13.739342713107	0.66551830932794
13.695406943810	0.66553280974277
13.651751275046	0.66554653256237
13.608373036768	0.66555949201726
13.565269592760	0.66557170222490
13.522438340099	0.66558317718924
13.479876708633	0.66559393080018
13.437582160466	0.66560397683314
13.395552189455	0.66561332894859
13.353784320713	0.66562200069166
13.312276110124	0.66563000549168
13.271025143869	0.66563735666189
13.230029037952	0.66564406739898
13.189285437747	0.66565015078286
13.148792017544	0.66565561977623
13.108546480105	0.66566048722439
13.068546556234	0.66566476585491
13.028790004346	0.66566846827736
12.989274610052	0.66567160698314
12.949998185745	0.66567419434519
12.910958570198	0.66567624261787
12.872153628167	0.66567776393670
12.833581250000	0.66567877031831
12.795239351259	0.66567927366018
12.757125872340	0.66567928574064
12.719238778108	0.66567881821871
12.681576057530	0.66567788263399
12.644135723323	0.66567649040669
12.606915811606	0.66567465283748
12.569914381551	0.66567238110756
12.533129515050	0.66566968627859
12.496559316382	0.66566657929269
12.460201911887	0.66566307097253
12.424055449648	0.66565917202132
12.388118099174	0.66565489302289
12.352388051092	0.66565024444174
12.316863516845	0.66564523662318
12.281542728390	0.66563987979341
12.246423937908	0.66563418405963
12.211505417515	0.66562815941022
12.176785458976	0.66562181571487
12.142262373431	0.66561516272475
12.107934491115	0.66560821007272
12.073800161095	0.66560096727349
12.039857751004	0.66559344372390
12.006105646776	0.66558564870308
11.972542252396	0.66557759137275
11.939165989646	0.66556928077745
11.905975297855	0.66556072584482
11.872968633663	0.66555193538590
11.840144470774	0.66554291809540
11.807501299724	0.66553368255206
11.775037627651	0.66552423721891
11.742751978065	0.66551459044369
11.710642890625	0.66550475045914
11.678708920919	0.66549472538338
11.646948640249	0.66548452322030
11.615360635413	0.66547415185994
11.583943508501	0.66546361907889
11.552695876686	0.66545293254070
11.521616372022	0.66544209979632
11.490703641242	0.66543112828450
11.459956345566	0.66542002533228
11.429373160503	0.66540879815539
11.398952775665	0.66539745385879
11.368693894577	0.66538599943708
11.338595234493	0.66537444177502
11.308655526217	0.66536278764804
11.278873513920	0.66535104372271
11.249247954972	0.66533921655729
11.219777619760	0.66532731260224
11.190461291527	0.66531533820076
11.161297766195	0.66530329958934
11.132285852209	0.66529120289831
11.103424370370	0.66527905415239
11.074712153676	0.66526685927129
11.046148047163	0.66525462407026
11.017730907755	0.66524235426069
10.989459604106	0.66523005545072
10.961333016453	0.66521773314580
10.933350036470	0.66520539274937
10.905509567115	0.66519303956339
10.877810522496	0.66518067878905
10.850251827723	0.66516831552734
10.822832418773	0.66515595477974
10.795551242348	0.66514360144883
10.768407255747	0.66513126033893
10.741399426729	0.66511893615683
10.714526733381	0.66510663351237
10.687788163993	0.66509435691915
10.661182716927	0.66508211079525
10.634709400497	0.66506989946381
10.608367232838	0.66505772715381
10.582155241793	0.66504559800075
10.556072464789	0.66503351604728
10.530117948718	0.66502148524401
10.504290749825	0.66500950945012
10.478589933590	0.66499759243416
10.453014574616	0.66498573787468
10.427563756522	0.66497394936105
10.402236571825	0.66496223039409
10.377032121841	0.66495058438688
10.351949516575	0.66493901466545
10.326987874612	0.66492752446954
10.302146323024	0.66491611695333
10.277423997257	0.66490479518620
10.252820041040	0.66489356215346
10.228333606278	0.66488242075712
10.203963852961	0.66487137381666
10.179709949066	0.66486042406974
10.155571070461	0.66484957417301
10.131546400811	0.66483882670286
10.107635131490	0.66482818415618
10.083836461487	0.66481764895114
10.060149597315	0.66480722342796
10.036573752929	0.66479690984966
10.013108149633	0.66478671040289
9.9897520159947	0.66477662719865
9.9665045877660	0.66476666227312
9.9433651077944	0.66475681758840
9.9203328259431	0.66474709503333
9.8974069990096	0.66473749642423
9.8745868906456	0.66472802350575
9.8518717712783	0.66471867795158
9.8292609180328	0.66470946136532
9.8067536146549	0.66470037528118
9.7843491514360	0.66469142116487
9.7620468251384	0.66468260041431
9.7398459389214	0.66467391436044
9.7177458022690	0.66466536426805
9.6957457309185	0.66465695133652
9.6738450467893	0.66464867670066
9.6520430779137	0.66464054143145
9.6303391583681	0.66463254653690
9.6087326282051	0.66462469296277
9.5872228333866	0.66461698159342
9.5658091257179	0.66460941325257
9.5444908627826	0.66460198870409
9.5232674078780	0.66459470865284
9.5021381299525	0.66458757374538
9.4811024035421	0.66458058457082
9.4601596087094	0.66457374166161
9.4393091309824	0.66456704549428
9.4185503612944	0.66456049649028
9.3978826959248	0.66455409501675
9.3773055364404	0.66454784138727
9.3568182896380	0.66454173586270
9.3364203674868	0.66453577865193
9.3161111870727	0.66452996991267
9.2958901705426	0.66452430975221
9.2757567450495	0.66451879822823
9.2557103426984	0.66451343534957
9.2357504004929	0.66450822107698
9.2158763602828	0.66450315532390
9.1960876687117	0.66449823795726
9.1763837771656	0.66449346879822
9.1567641417227	0.66448884762293
9.1372282231027	0.66448437416332
9.1177754866180	0.66448004810786
9.0984054021244	0.66447586910228
9.0791174439733	0.66447183675039
9.0599110909640	0.66446795061477
9.0407858262967	0.66446421021756
9.0217411375263	0.66446061504123
9.0027765165165	0.66445716452925
8.9838914593947	0.66445385808693
8.9650854665072	0.66445069508208
8.9463580423754	0.66444767484579
8.9277086956522	0.66444479667316
8.9091369390788	0.66444205982402
8.8906422894425	0.66443946352367
8.8722242675348	0.66443700696360
8.8538823981099	0.66443468930222
8.8356162098438	0.66443250966555
8.8174252352941	0.66443046714797
8.7993090108600	0.66442856081293
8.7812670767428	0.66442678969363
8.7632989769073	0.66442515279375
8.7454042590432	0.66442364908812
8.7275824745269	0.66442227752348
8.7098331783847	0.66442103701908
8.6921559292549	0.66441992646747
8.6745502893519	0.66441894473510
8.6570158244297	0.66441809066306
8.6395521037464	0.66441736306773
8.6221587000288	0.66441676074145
8.6048351894374	0.66441628245322
8.5875811515325	0.66441592694931
8.5703961692396	0.66441569295398
8.5532798288160	0.66441557917010
8.5362317198178	0.66441558427983
8.5192514350668	0.66441570694523
8.5023385706183	0.66441594580892
8.4854927257288	0.66441629949475
8.4687135028249	0.66441676660839
8.4520005074711	0.66441734573797
8.4353533483399	0.66441803545473
8.4187716371806	0.66441883431360
8.4022549887892	0.66441974085387
8.3858030209790	0.66442075359975
8.3694153545505	0.66442187106100
8.3530916132627	0.66442309173351
8.3368314238042	0.66442441409996
8.3206344157646	0.66442583663031
8.3045002216066	0.66442735778249
8.2884284766381	0.66442897600291
8.2724188189845	0.66443068972706
8.2564708895621	0.66443249738010
8.2405843320506	0.66443439737739
8.2247587928669	0.66443638812509
8.2089939211391	0.66443846802069
8.1932893686800	0.66444063545355
8.1776447899618	0.66444288880550
8.1620598420909	0.66444522645132
8.1465341847826	0.66444764675932
8.1310674803363	0.66445014809183
8.1156593936113	0.66445272880576
8.1003095920022	0.66445538725311
8.0850177454153	0.66445812178146
8.0697835262450	0.66446093073453
8.0546066093498	0.66446381245262
8.0394866720300	0.66446676527315
8.0244233940043	0.66446978753115
8.0094164573871	0.66447287755974
