#Parameters = {thARC=0.8; nARC=1; thsub=1; p=1; nSub=3.75}
#"Wavelength / um"	"T (599) [Real Part]"
#---------------------------------------
14.008993364486	0.66556280873903
13.963318956684	0.66558701488345
13.917941411328	0.66561012777007
13.872857843591	0.66563216616663
13.828065405904	0.66565314871326
13.783561287356	0.66567309392136
13.739342713107	0.66569202017251
13.695406943810	0.66570994571731
13.651751275046	0.66572688867439
13.608373036768	0.66574286702937
13.565269592760	0.66575789863390
13.522438340099	0.66577200120467
13.479876708633	0.66578519232251
13.437582160466	0.66579748943151
13.395552189455	0.66580890983816
13.353784320713	0.66581947071052
13.312276110124	0.66582918907745
13.271025143869	0.66583808182782
13.230029037952	0.66584616570982
13.189285437747	0.66585345733023
13.148792017544	0.66585997315375
13.108546480105	0.66586572950242
13.068546556234	0.66587074255493
13.028790004346	0.66587502834612
12.989274610052	0.66587860276640
12.949998185745	0.66588148156122
12.910958570198	0.66588368033061
12.872153628167	0.66588521452873
12.833581250000	0.66588609946338
12.795239351259	0.66588635029568
12.757125872340	0.66588598203964
12.719238778108	0.66588500956182
12.681576057530	0.66588344758106
12.644135723323	0.66588131066812
12.606915811606	0.66587861324546
12.569914381551	0.66587536958701
12.533129515050	0.66587159381791
12.496559316382	0.66586729991439
12.460201911887	0.66586250170356
12.424055449648	0.66585721286332
12.388118099174	0.66585144692219
12.352388051092	0.66584521725931
12.316863516845	0.66583853710431
12.281542728390	0.66583141953730
12.246423937908	0.66582387748889
12.211505417515	0.66581592374016
12.176785458976	0.66580757092272
12.142262373431	0.66579883151875
12.107934491115	0.66578971786112
12.073800161095	0.66578024213347
12.039857751004	0.66577041637033
12.006105646776	0.66576025245729
11.972542252396	0.66574976213117
11.939165989646	0.66573895698020
11.905975297855	0.66572784844424
11.872968633663	0.66571644781500
11.840144470774	0.66570476623634
11.807501299724	0.66569281470450
11.775037627651	0.66568060406841
11.742751978065	0.66566814503000
11.710642890625	0.66565544814454
11.678708920919	0.66564252382101
11.646948640249	0.66562938232241
11.615360635413	0.66561603376625
11.583943508501	0.66560248812485
11.552695876686	0.66558875522583
11.521616372022	0.66557484475255
11.490703641242	0.66556076624455
11.459956345566	0.66554652909803
11.429373160503	0.66553214256636
11.398952775665	0.66551761576057
11.368693894577	0.66550295764989
11.338595234493	0.66548817706228
11.308655526217	0.66547328268500
11.278873513920	0.66545828306517
11.249247954972	0.66544318661036
11.219777619760	0.66542800158921
11.190461291527	0.66541273613201
11.161297766195	0.66539739823136
11.132285852209	0.66538199574282
11.103424370370	0.66536653638551
11.074712153676	0.66535102774287
11.046148047163	0.66533547726327
11.017730907755	0.66531989226072
10.989459604106	0.66530427991563
10.961333016453	0.66528864727545
10.933350036470	0.66527300125546
10.905509567115	0.66525734863952
10.877810522496	0.66524169608077
10.850251827723	0.66522605010244
10.822832418773	0.66521041709863
10.795551242348	0.66519480333508
10.768407255747	0.66517921494998
10.741399426729	0.66516365795476
10.714526733381	0.66514813823494
10.687788163993	0.66513266155094
10.661182716927	0.66511723353889
10.634709400497	0.66510185971154
10.608367232838	0.66508654545907
10.582155241793	0.66507129604996
10.556072464789	0.66505611663186
10.530117948718	0.66504101223250
10.504290749825	0.66502598776054
10.478589933590	0.66501104800648
10.453014574616	0.66499619764359
10.427563756522	0.66498144122878
10.402236571825	0.66496678320353
10.377032121841	0.66495222789484
10.351949516575	0.66493777951614
10.326987874612	0.66492344216822
10.302146323024	0.66490921984020
10.277423997257	0.66489511641045
10.252820041040	0.66488113564757
10.228333606278	0.66486728121136
10.203963852961	0.66485355665373
10.179709949066	0.66483996541975
10.155571070461	0.66482651084856
10.131546400811	0.66481319617441
10.107635131490	0.66480002452759
10.083836461487	0.66478699893545
10.060149597315	0.66477412232340
10.036573752929	0.66476139751590
10.013108149633	0.66474882723745
9.9897520159947	0.66473641411361
9.9665045877660	0.66472416067200
9.9433651077944	0.66471206934335
9.9203328259431	0.66470014246243
9.8974069990096	0.66468838226917
9.8745868906456	0.66467679090960
9.8518717712783	0.66466537043692
9.8292609180328	0.66465412281250
9.8067536146549	0.66464304990693
9.7843491514360	0.66463215350102
9.7620468251384	0.66462143528687
9.7398459389214	0.66461089686887
9.7177458022690	0.66460053976473
9.6957457309185	0.66459036540655
9.6738450467893	0.66458037514184
9.6520430779137	0.66457057023453
9.6303391583681	0.66456095186606
9.6087326282051	0.66455152113638
9.5872228333866	0.66454227906499
9.5658091257179	0.66453322659202
9.5444908627826	0.66452436457920
9.5232674078780	0.66451569381099
9.5021381299525	0.66450721499553
9.4811024035421	0.66449892876573
9.4601596087094	0.66449083568032
9.4393091309824	0.66448293622483
9.4185503612944	0.66447523081271
9.3978826959248	0.66446771978628
9.3773055364404	0.66446040341784
9.3568182896380	0.66445328191065
9.3364203674868	0.66444635540001
9.3161111870727	0.66443962395426
9.2958901705426	0.66443308757580
9.2757567450495	0.66442674620218
9.2557103426984	0.66442059970705
9.2357504004929	0.66441464790125
9.2158763602828	0.66440889053378
9.1960876687117	0.66440332729286
9.1763837771656	0.66439795780694
9.1567641417227	0.66439278164571
9.1372282231027	0.66438779832111
9.1177754866180	0.66438300728835
9.0984054021244	0.66437840794693
9.0791174439733	0.66437399964162
9.0599110909640	0.66436978166348
9.0407858262967	0.66436575325086
9.0217411375263	0.66436191359037
9.0027765165165	0.66435826181794
8.9838914593947	0.66435479701972
8.9650854665072	0.66435151823315
8.9463580423754	0.66434842444787
8.9277086956522	0.66434551460677
8.9091369390788	0.66434278760690
8.8906422894425	0.66434024230051
8.8722242675348	0.66433787749592
8.8538823981099	0.66433569195861
8.8356162098438	0.66433368441206
8.8174252352941	0.66433185353878
8.7993090108600	0.66433019798123
8.7812670767428	0.66432871634278
8.7632989769073	0.66432740718863
8.7454042590432	0.66432626904679
8.7275824745269	0.66432530040895
8.7098331783847	0.66432449973146
8.6921559292549	0.66432386543622
8.6745502893519	0.66432339591162
8.6570158244297	0.66432308951345
8.6395521037464	0.66432294456577
8.6221587000288	0.66432295936186
8.6048351894374	0.66432313216510
8.5875811515325	0.66432346120986
8.5703961692396	0.66432394470237
8.5532798288160	0.66432458082161
8.5362317198178	0.66432536772021
8.5192514350668	0.66432630352528
8.5023385706183	0.66432738633929
8.4854927257288	0.66432861424094
8.4687135028249	0.66432998528596
8.4520005074711	0.66433149750805
8.4353533483399	0.66433314891960
8.4187716371806	0.66433493751263
8.4022549887892	0.66433686125955
8.3858030209790	0.66433891811401
8.3694153545505	0.66434110601169
8.3530916132627	0.66434342287114
8.3368314238042	0.66434586659456
8.3206344157646	0.66434843506859
8.3045002216066	0.66435112616512
8.2884284766381	0.66435393774206
8.2724188189845	0.66435686764410
8.2564708895621	0.66435991370350
8.2405843320506	0.66436307374086
8.2247587928669	0.66436634556584
8.2089939211391	0.66436972697793
8.1932893686800	0.66437321576719
8.1776447899618	0.66437680971498
8.1620598420909	0.66438050659471
8.1465341847826	0.66438430417250
8.1310674803363	0.66438820020797
8.1156593936113	0.66439219245489
8.1003095920022	0.66439627866189
8.0850177454153	0.66440045657317
8.0697835262450	0.66440472392916
8.0546066093498	0.66440907846723
8.0394866720300	0.66441351792231
8.0244233940043	0.66441804002761
8.0094164573871	0.66442264251521
