#Parameters = {thARC=0.2; nARC=1.5; thsub=1; p=1; nSub=3.75}
#"Wavelength / um"	"T (608) [Real Part]"
#---------------------------------------
14.008993364486	0.66873228922971
13.963318956684	0.66876898980620
13.917941411328	0.66880518031045
13.872857843591	0.66884087063781
13.828065405904	0.66887607060484
13.783561287356	0.66891078994912
13.739342713107	0.66894503832909
13.695406943810	0.66897882532387
13.651751275046	0.66901216043312
13.608373036768	0.66904505307687
13.565269592760	0.66907751259546
13.522438340099	0.66910954824934
13.479876708633	0.66914116921903
13.437582160466	0.66917238460498
13.395552189455	0.66920320342752
13.353784320713	0.66923363462676
13.312276110124	0.66926368706253
13.271025143869	0.66929336951437
13.230029037952	0.66932269068140
13.189285437747	0.66935165918240
13.148792017544	0.66938028355568
13.108546480105	0.66940857225915
13.068546556234	0.66943653367028
13.028790004346	0.66946417608613
12.989274610052	0.66949150772334
12.949998185745	0.66951853671817
12.910958570198	0.66954527112657
12.872153628167	0.66957171892417
12.833581250000	0.66959788800640
12.795239351259	0.66962378618848
12.757125872340	0.66964942120558
12.719238778108	0.66967480071284
12.681576057530	0.66969993228549
12.644135723323	0.66972482341895
12.606915811606	0.66974948152894
12.569914381551	0.66977391395157
12.533129515050	0.66979812794355
12.496559316382	0.66982213068221
12.460201911887	0.66984592926574
12.424055449648	0.66986953071331
12.388118099174	0.66989294196520
12.352388051092	0.66991616988302
12.316863516845	0.66993922124985
12.281542728390	0.66996210277043
12.246423937908	0.66998482107139
12.211505417515	0.67000738270135
12.176785458976	0.67002979413127
12.142262373431	0.67005206175451
12.107934491115	0.67007419188718
12.073800161095	0.67009619076828
12.039857751004	0.67011806455998
12.006105646776	0.67013981934785
11.972542252396	0.67016146114109
11.939165989646	0.67018299587283
11.905975297855	0.67020442940032
11.872968633663	0.67022576750528
11.840144470774	0.67024701589411
11.807501299724	0.67026818019818
11.775037627651	0.67028926597416
11.742751978065	0.67031027870425
11.710642890625	0.67033122379654
11.678708920919	0.67035210658524
11.646948640249	0.67037293233106
11.615360635413	0.67039370622148
11.583943508501	0.67041443337111
11.552695876686	0.67043511882195
11.521616372022	0.67045576754380
11.490703641242	0.67047638443452
11.459956345566	0.67049697432044
11.429373160503	0.67051754195667
11.398952775665	0.67053809202742
11.368693894577	0.67055862914644
11.338595234493	0.67057915785730
11.308655526217	0.67059968263378
11.278873513920	0.67062020788026
11.249247954972	0.67064073793208
11.219777619760	0.67066127705589
11.190461291527	0.67068182945009
11.161297766195	0.67070239924515
11.132285852209	0.67072299050407
11.103424370370	0.67074360722271
11.074712153676	0.67076425333021
11.046148047163	0.67078493268943
11.017730907755	0.67080564909728
10.989459604106	0.67082640628520
10.961333016453	0.67084720791953
10.933350036470	0.67086805760194
10.905509567115	0.67088895886985
10.877810522496	0.67090991519684
10.850251827723	0.67093092999308
10.822832418773	0.67095200660578
10.795551242348	0.67097314831958
10.768407255747	0.67099435835701
10.741399426729	0.67101563987895
10.714526733381	0.67103699598499
10.687788163993	0.67105842971397
10.661182716927	0.67107994404436
10.634709400497	0.67110154189470
10.608367232838	0.67112322612412
10.582155241793	0.67114499953271
10.556072464789	0.67116686486202
10.530117948718	0.67118882479550
10.504290749825	0.67121088195895
10.478589933590	0.67123303892102
10.453014574616	0.67125529819361
10.427563756522	0.67127766223239
10.402236571825	0.67130013343722
10.377032121841	0.67132271415265
10.351949516575	0.67134540666838
10.326987874612	0.67136821321970
10.302146323024	0.67139113598801
10.277423997257	0.67141417710127
10.252820041040	0.67143733863444
10.228333606278	0.67146062261003
10.203963852961	0.67148403099851
10.179709949066	0.67150756571880
10.155571070461	0.67153122863879
10.131546400811	0.67155502157576
10.107635131490	0.67157894629690
10.083836461487	0.67160300451978
10.060149597315	0.67162719791283
10.036573752929	0.67165152809582
10.013108149633	0.67167599664035
9.9897520159947	0.67170060507032
9.9665045877660	0.67172535486243
9.9433651077944	0.67175024744667
9.9203328259431	0.67177528420676
9.8974069990096	0.67180046648070
9.8745868906456	0.67182579556122
9.8518717712783	0.67185127269623
9.8292609180328	0.67187689908939
9.8067536146549	0.67190267590053
9.7843491514360	0.67192860424616
9.7620468251384	0.67195468519993
9.7398459389214	0.67198091979317
9.7177458022690	0.67200730901531
9.6957457309185	0.67203385381442
9.6738450467893	0.67206055509766
9.6520430779137	0.67208741373177
9.6303391583681	0.67211443054357
9.6087326282051	0.67214160632043
9.5872228333866	0.67216894181075
9.5658091257179	0.67219643772447
9.5444908627826	0.67222409473350
9.5232674078780	0.67225191347225
9.5021381299525	0.67227989453810
9.4811024035421	0.67230803849186
9.4601596087094	0.67233634585826
9.4393091309824	0.67236481712644
9.4185503612944	0.67239345275041
9.3978826959248	0.67242225314953
9.3773055364404	0.67245121870902
9.3568182896380	0.67248034978035
9.3364203674868	0.67250964668181
9.3161111870727	0.67253910969893
9.2958901705426	0.67256873908494
9.2757567450495	0.67259853506129
9.2557103426984	0.67262849781806
9.2357504004929	0.67265862751447
9.2158763602828	0.67268892427933
9.1960876687117	0.67271938821150
9.1763837771656	0.67275001938037
9.1567641417227	0.67278081782629
9.1372282231027	0.67281178356108
9.1177754866180	0.67284291656843
9.0984054021244	0.67287421680439
9.0791174439733	0.67290568419783
9.0599110909640	0.67293731865089
9.0407858262967	0.67296912003941
9.0217411375263	0.67300108821339
9.0027765165165	0.67303322299748
8.9838914593947	0.67306552419135
8.9650854665072	0.67309799157020
8.9463580423754	0.67313062488516
8.9277086956522	0.67316342386378
8.9091369390788	0.67319638821039
8.8906422894425	0.67322951760664
8.8722242675348	0.67326281171184
8.8538823981099	0.67329627016344
8.8356162098438	0.67332989257746
8.8174252352941	0.67336367854891
8.7993090108600	0.67339762765221
8.7812670767428	0.67343173944163
8.7632989769073	0.67346601345171
8.7454042590432	0.67350044919766
8.7275824745269	0.67353504617580
8.7098331783847	0.67356980386396
8.6921559292549	0.67360472172190
8.6745502893519	0.67363979919173
8.6570158244297	0.67367503569829
8.6395521037464	0.67371043064959
8.6221587000288	0.67374598343719
8.6048351894374	0.67378169343660
8.5875811515325	0.67381756000770
8.5703961692396	0.67385358249511
8.5532798288160	0.67388976022859
8.5362317198178	0.67392609252344
8.5192514350668	0.67396257868090
8.5023385706183	0.67399921798850
8.4854927257288	0.67403600972044
8.4687135028249	0.67407295313804
8.4520005074711	0.67411004749003
8.4353533483399	0.67414729201297
8.4187716371806	0.67418468593163
8.4022549887892	0.67422222845932
8.3858030209790	0.67425991879831
8.3694153545505	0.67429775614013
8.3530916132627	0.67433573966598
8.3368314238042	0.67437386854708
8.3206344157646	0.67441214194501
8.3045002216066	0.67445055901207
8.2884284766381	0.67448911889163
8.2724188189845	0.67452782071846
8.2564708895621	0.67456666361912
8.2405843320506	0.67460564671224
8.2247587928669	0.67464476910890
8.2089939211391	0.67468402991295
8.1932893686800	0.67472342822134
8.1776447899618	0.67476296312446
8.1620598420909	0.67480263370646
8.1465341847826	0.67484243904554
8.1310674803363	0.67488237821433
8.1156593936113	0.67492245028017
8.1003095920022	0.67496265430542
8.0850177454153	0.67500298934778
8.0697835262450	0.67504345446062
8.0546066093498	0.67508404869322
8.0394866720300	0.67512477109115
8.0244233940043	0.67516562069650
8.0094164573871	0.67520659654823
