#Parameters = {thARC=0.4; nARC=1.25; thsub=1; p=1; nSub=3.75}
#"Wavelength / um"	"T (603) [Real Part]"
#---------------------------------------
14.008993364486	0.67192927319916
13.963318956684	0.67198833745418
13.917941411328	0.67204683377437
13.872857843591	0.67210477428062
13.828065405904	0.67216217099969
13.783561287356	0.67221903586381
13.739342713107	0.67227538071033
13.695406943810	0.67233121728137
13.651751275046	0.67238655722353
13.608373036768	0.67244141208757
13.565269592760	0.67249579332809
13.522438340099	0.67254971230329
13.479876708633	0.67260318027471
13.437582160466	0.67265620840699
13.395552189455	0.67270880776762
13.353784320713	0.67276098932674
13.312276110124	0.67281276395697
13.271025143869	0.67286414243318
13.230029037952	0.67291513543239
13.189285437747	0.67296575353355
13.148792017544	0.67301600721745
13.108546480105	0.67306590686658
13.068546556234	0.67311546276505
13.028790004346	0.67316468509845
12.989274610052	0.67321358395382
12.949998185745	0.67326216931956
12.910958570198	0.67331045108538
12.872153628167	0.67335843904226
12.833581250000	0.67340614288247
12.795239351259	0.67345357219949
12.757125872340	0.67350073648807
12.719238778108	0.67354764514421
12.681576057530	0.67359430746525
12.644135723323	0.67364073264981
12.606915811606	0.67368692979795
12.569914381551	0.67373290791118
12.533129515050	0.67377867589254
12.496559316382	0.67382424254674
12.460201911887	0.67386961658020
12.424055449648	0.67391480660120
12.388118099174	0.67395982112003
12.352388051092	0.67400466854907
12.316863516845	0.67404935720300
12.281542728390	0.67409389529894
12.246423937908	0.67413829095661
12.211505417515	0.67418255219854
12.176785458976	0.67422668695023
12.142262373431	0.67427070304040
12.107934491115	0.67431460820118
12.073800161095	0.67435841006835
12.039857751004	0.67440211618155
12.006105646776	0.67444573398456
11.972542252396	0.67448927082554
11.939165989646	0.67453273395730
11.905975297855	0.67457613053759
11.872968633663	0.67461946762935
11.840144470774	0.67466275220106
11.807501299724	0.67470599112698
11.775037627651	0.67474919118752
11.742751978065	0.67479235906954
11.710642890625	0.67483550136667
11.678708920919	0.67487862457966
11.646948640249	0.67492173511674
11.615360635413	0.67496483929397
11.583943508501	0.67500794333557
11.552695876686	0.67505105337437
11.521616372022	0.67509417545210
11.490703641242	0.67513731551985
11.459956345566	0.67518047943843
11.429373160503	0.67522367297877
11.398952775665	0.67526690182237
11.368693894577	0.67531017156167
11.338595234493	0.67535348770050
11.308655526217	0.67539685565450
11.278873513920	0.67544028075158
11.249247954972	0.67548376823234
11.219777619760	0.67552732325054
11.190461291527	0.67557095087354
11.161297766195	0.67561465608279
11.132285852209	0.67565844377428
11.103424370370	0.67570231875901
11.074712153676	0.67574628576350
11.046148047163	0.67579034943026
11.017730907755	0.67583451431827
10.989459604106	0.67587878490351
10.961333016453	0.67592316557945
10.933350036470	0.67596766065754
10.905509567115	0.67601227436777
10.877810522496	0.67605701085912
10.850251827723	0.67610187420018
10.822832418773	0.67614686837957
10.795551242348	0.67619199730658
10.768407255747	0.67623726481161
10.741399426729	0.67628267464679
10.714526733381	0.67632823048648
10.687788163993	0.67637393592785
10.661182716927	0.67641979449140
10.634709400497	0.67646580962155
10.608367232838	0.67651198468719
10.582155241793	0.67655832298224
10.556072464789	0.67660482772625
10.530117948718	0.67665150206492
10.504290749825	0.67669834907072
10.478589933590	0.67674537174345
10.453014574616	0.67679257301082
10.427563756522	0.67683995572905
10.402236571825	0.67688752268345
10.377032121841	0.67693527658901
10.351949516575	0.67698322009098
10.326987874612	0.67703135576552
10.302146323024	0.67707968612020
10.277423997257	0.67712821359471
10.252820041040	0.67717694056140
10.228333606278	0.67722586932587
10.203963852961	0.67727500212764
10.179709949066	0.67732434114072
10.155571070461	0.67737388847421
10.131546400811	0.67742364617293
10.107635131490	0.67747361621805
10.083836461487	0.67752380052767
10.060149597315	0.67757420095747
10.036573752929	0.67762481930130
10.013108149633	0.67767565729184
9.9897520159947	0.67772671660118
9.9665045877660	0.67777799884144
9.9433651077944	0.67782950556546
9.9203328259431	0.67788123826733
9.8974069990096	0.67793319838309
9.8745868906456	0.67798538729131
9.8518717712783	0.67803780631375
9.8292609180328	0.67809045671596
9.8067536146549	0.67814333970792
9.7843491514360	0.67819645644467
9.7620468251384	0.67824980802694
9.7398459389214	0.67830339550175
9.7177458022690	0.67835721986308
9.6957457309185	0.67841128205248
9.6738450467893	0.67846558295970
9.6520430779137	0.67852012342330
9.6303391583681	0.67857490423132
9.6087326282051	0.67862992612187
9.5872228333866	0.67868518978377
9.5658091257179	0.67874069585718
9.5444908627826	0.67879644493424
9.5232674078780	0.67885243755965
9.5021381299525	0.67890867423138
9.4811024035421	0.67896515540118
9.4601596087094	0.67902188147532
9.4393091309824	0.67907885281513
9.4185503612944	0.67913606973767
9.3978826959248	0.67919353251632
9.3773055364404	0.67925124138142
9.3568182896380	0.67930919652091
9.3364203674868	0.67936739808088
9.3161111870727	0.67942584616627
9.2958901705426	0.67948454084141
9.2757567450495	0.67954348213071
9.2557103426984	0.67960267001919
9.2357504004929	0.67966210445317
9.2158763602828	0.67972178534083
9.1960876687117	0.67978171255283
9.1763837771656	0.67984188592292
9.1567641417227	0.67990230524856
9.1372282231027	0.67996297029149
9.1177754866180	0.68002388077835
9.0984054021244	0.68008503640127
9.0791174439733	0.68014643681851
9.0599110909640	0.68020808165498
9.0407858262967	0.68026997050290
9.0217411375263	0.68033210292234
9.0027765165165	0.68039447844186
8.9838914593947	0.68045709655905
8.9650854665072	0.68051995674114
8.9463580423754	0.68058305842559
8.9277086956522	0.68064640102063
8.9091369390788	0.68070998390588
8.8906422894425	0.68077380643290
8.8722242675348	0.68083786792578
8.8538823981099	0.68090216768169
8.8356162098438	0.68096670497145
8.8174252352941	0.68103147904012
8.7993090108600	0.68109648910752
8.7812670767428	0.68116173436882
8.7632989769073	0.68122721399508
8.7454042590432	0.68129292713381
8.7275824745269	0.68135887290953
8.7098331783847	0.68142505042429
8.6921559292549	0.68149145875824
8.6745502893519	0.68155809697014
8.6570158244297	0.68162496409795
8.6395521037464	0.68169205915930
8.6221587000288	0.68175938115208
8.6048351894374	0.68182692905492
8.5875811515325	0.68189470182776
8.5703961692396	0.68196269841233
8.5532798288160	0.68203091773270
8.5362317198178	0.68209935869577
8.5192514350668	0.68216802019182
8.5023385706183	0.68223690109496
8.4854927257288	0.68230600026369
8.4687135028249	0.68237531654137
8.4520005074711	0.68244484875673
8.4353533483399	0.68251459572435
8.4187716371806	0.68258455624517
8.4022549887892	0.68265472910698
8.3858030209790	0.68272511308486
8.3694153545505	0.68279570694172
8.3530916132627	0.68286650942874
8.3368314238042	0.68293751928583
8.3206344157646	0.68300873524213
8.3045002216066	0.68308015601647
8.2884284766381	0.68315178031781
8.2724188189845	0.68322360684571
8.2564708895621	0.68329563429078
8.2405843320506	0.68336786133514
8.2247587928669	0.68344028665284
8.2089939211391	0.68351290891032
8.1932893686800	0.68358572676686
8.1776447899618	0.68365873887496
8.1620598420909	0.68373194388084
8.1465341847826	0.68380534042482
8.1310674803363	0.68387892714173
8.1156593936113	0.68395270266137
8.1003095920022	0.68402666560889
8.0850177454153	0.68410081460521
8.0697835262450	0.68417514826742
8.0546066093498	0.68424966520918
8.0394866720300	0.68432436404111
8.0244233940043	0.68439924337120
8.0094164573871	0.68447430180518
