#Parameters = {thARC=0; nARC=1.5; thsub=1; p=1; nSub=4}
#"Wavelength / um"	"T (661) [Real Part]"
#---------------------------------------
14.008993364486	0.64041783345211
13.963318956684	0.64043180905151
13.917941411328	0.64044520128650
13.872857843591	0.64045801994460
13.828065405904	0.64047027473627
13.783561287356	0.64048197529468
13.739342713107	0.64049313117555
13.695406943810	0.64050375185696
13.651751275046	0.64051384673923
13.608373036768	0.64052342514469
13.565269592760	0.64053249631763
13.522438340099	0.64054106942411
13.479876708633	0.64054915355187
13.437582160466	0.64055675771022
13.395552189455	0.64056389082995
13.353784320713	0.64057056176324
13.312276110124	0.64057677928357
13.271025143869	0.64058255208572
13.230029037952	0.64058788878563
13.189285437747	0.64059279792044
13.148792017544	0.64059728794840
13.108546480105	0.64060136724887
13.068546556234	0.64060504412233
13.028790004346	0.64060832679033
12.989274610052	0.64061122339556
12.949998185745	0.64061374200181
12.910958570198	0.64061589059405
12.872153628167	0.64061767707840
12.833581250000	0.64061910928227
12.795239351259	0.64062019495433
12.757125872340	0.64062094176462
12.719238778108	0.64062135730462
12.681576057530	0.64062144908731
12.644135723323	0.64062122454730
12.606915811606	0.64062069104089
12.569914381551	0.64061985584623
12.533129515050	0.64061872616336
12.496559316382	0.64061730911443
12.460201911887	0.64061561174376
12.424055449648	0.64061364101802
12.388118099174	0.64061140382637
12.352388051092	0.64060890698061
12.316863516845	0.64060615721537
12.281542728390	0.64060316118825
12.246423937908	0.64059992548004
12.211505417515	0.64059645659489
12.176785458976	0.64059276096048
12.142262373431	0.64058884492828
12.107934491115	0.64058471477371
12.073800161095	0.64058037669639
12.039857751004	0.64057583682034
12.006105646776	0.64057110119425
11.972542252396	0.64056617579166
11.939165989646	0.64056106651126
11.905975297855	0.64055577917712
11.872968633663	0.64055031953892
11.840144470774	0.64054469327228
11.807501299724	0.64053890597895
11.775037627651	0.64053296318717
11.742751978065	0.64052687035188
11.710642890625	0.64052063285504
11.678708920919	0.64051425600593
11.646948640249	0.64050774504144
11.615360635413	0.64050110512637
11.583943508501	0.64049434135376
11.552695876686	0.64048745874519
11.521616372022	0.64048046225108
11.490703641242	0.64047335675108
11.459956345566	0.64046614705432
11.429373160503	0.64045883789983
11.398952775665	0.64045143395682
11.368693894577	0.64044393982502
11.338595234493	0.64043636003511
11.308655526217	0.64042869904898
11.278873513920	0.64042096126014
11.249247954972	0.64041315099409
11.219777619760	0.64040527250864
11.190461291527	0.64039732999437
11.161297766195	0.64038932757489
11.132285852209	0.64038126930733
11.103424370370	0.64037315918266
11.074712153676	0.64036500112610
11.046148047163	0.64035679899749
11.017730907755	0.64034855659173
10.989459604106	0.64034027763914
10.961333016453	0.64033196580588
10.933350036470	0.64032362469434
10.905509567115	0.64031525784357
10.877810522496	0.64030686872969
10.850251827723	0.64029846076628
10.822832418773	0.64029003730483
10.795551242348	0.64028160163514
10.768407255747	0.64027315698577
10.741399426729	0.64026470652444
10.714526733381	0.64025625335846
10.687788163993	0.64024780053518
10.661182716927	0.64023935104243
10.634709400497	0.64023090780892
10.608367232838	0.64022247370472
10.582155241793	0.64021405154168
10.556072464789	0.64020564407389
10.530117948718	0.64019725399811
10.504290749825	0.64018888395421
10.478589933590	0.64018053652566
10.453014574616	0.64017221423994
10.427563756522	0.64016391956901
10.402236571825	0.64015565492978
10.377032121841	0.64014742268453
10.351949516575	0.64013922514143
10.326987874612	0.64013106455492
10.302146323024	0.64012294312625
10.277423997257	0.64011486300388
10.252820041040	0.64010682628398
10.228333606278	0.64009883501091
10.203963852961	0.64009089117763
10.179709949066	0.64008299672623
10.155571070461	0.64007515354835
10.131546400811	0.64006736348568
10.107635131490	0.64005962833044
10.083836461487	0.64005194982580
10.060149597315	0.64004432966641
10.036573752929	0.64003676949883
10.013108149633	0.64002927092205
9.9897520159947	0.64002183548791
9.9665045877660	0.64001446470162
9.9433651077944	0.64000716002219
9.9203328259431	0.63999992286296
9.8974069990096	0.63999275459204
9.8745868906456	0.63998565653278
9.8518717712783	0.63997862996427
9.8292609180328	0.63997167612181
9.8067536146549	0.63996479619738
9.7843491514360	0.63995799134010
9.7620468251384	0.63995126265675
9.7398459389214	0.63994461121221
9.7177458022690	0.63993803802995
9.6957457309185	0.63993154409250
9.6738450467893	0.63992513034192
9.6520430779137	0.63991879768030
9.6303391583681	0.63991254697021
9.6087326282051	0.63990637903519
9.5872228333866	0.63990029466020
9.5658091257179	0.63989429459213
9.5444908627826	0.63988837954024
9.5232674078780	0.63988255017664
9.5021381299525	0.63987680713679
9.4811024035421	0.63987115101993
9.4601596087094	0.63986558238956
9.4393091309824	0.63986010177394
9.4185503612944	0.63985470966651
9.3978826959248	0.63984940652639
9.3773055364404	0.63984419277886
9.3568182896380	0.63983906881576
9.3364203674868	0.63983403499605
9.3161111870727	0.63982909164616
9.2958901705426	0.63982423906057
9.2757567450495	0.63981947750218
9.2557103426984	0.63981480720281
9.2357504004929	0.63981022836365
9.2158763602828	0.63980574115573
9.1960876687117	0.63980134572035
9.1763837771656	0.63979704216954
9.1567641417227	0.63979283058655
9.1372282231027	0.63978871102624
9.1177754866180	0.63978468351557
9.0984054021244	0.63978074805406
9.0791174439733	0.63977690461417
9.0599110909640	0.63977315314184
9.0407858262967	0.63976949355685
9.0217411375263	0.63976592575330
9.0027765165165	0.63976244960006
8.9838914593947	0.63975906494117
8.9650854665072	0.63975577159631
8.9463580423754	0.63975256936122
8.9277086956522	0.63974945800812
8.9091369390788	0.63974643728619
8.8906422894425	0.63974350692193
8.8722242675348	0.63974066661962
8.8538823981099	0.63973791606175
8.8356162098438	0.63973525490945
8.8174252352941	0.63973268280287
8.7993090108600	0.63973019936163
8.7812670767428	0.63972780418524
8.7632989769073	0.63972549685350
8.7454042590432	0.63972327692690
8.7275824745269	0.63972114394706
8.7098331783847	0.63971909743710
8.6921559292549	0.63971713690209
8.6745502893519	0.63971526182941
8.6570158244297	0.63971347168916
8.6395521037464	0.63971176593458
8.6221587000288	0.63971014400243
8.6048351894374	0.63970860531337
8.5875811515325	0.63970714927236
8.5703961692396	0.63970577526906
8.5532798288160	0.63970448267821
8.5362317198178	0.63970327085999
8.5192514350668	0.63970213916044
8.5023385706183	0.63970108691178
8.4854927257288	0.63970011343286
8.4687135028249	0.63969921802947
8.4520005074711	0.63969839999474
8.4353533483399	0.63969765860949
8.4187716371806	0.63969699314261
8.4022549887892	0.63969640285142
8.3858030209790	0.63969588698202
8.3694153545505	0.63969544476965
8.3530916132627	0.63969507543903
8.3368314238042	0.63969477820475
8.3206344157646	0.63969455227156
8.3045002216066	0.63969439683479
8.2884284766381	0.63969431108061
8.2724188189845	0.63969429418642
8.2564708895621	0.63969434532119
8.2405843320506	0.63969446364575
8.2247587928669	0.63969464831317
8.2089939211391	0.63969489846905
8.1932893686800	0.63969521325190
8.1776447899618	0.63969559179336
8.1620598420909	0.63969603321864
8.1465341847826	0.63969653664675
8.1310674803363	0.63969710119084
8.1156593936113	0.63969772595851
8.1003095920022	0.63969841005214
8.0850177454153	0.63969915256914
8.0697835262450	0.63969995260231
8.0546066093498	0.63970080924009
8.0394866720300	0.63970172156688
8.0244233940043	0.63970268866333
8.0094164573871	0.63970370960663
