#Parameters = {thARC=0.2; nARC=2.5; thsub=1; p=1; nSub=4}
#"Wavelength / um"	"T (686) [Real Part]"
#---------------------------------------
14.008993364486	0.65114775672431
13.963318956684	0.65123663679078
13.917941411328	0.65132485043334
13.872857843591	0.65141241280071
13.828065405904	0.65149933893707
13.783561287356	0.65158564378134
13.739342713107	0.65167134216632
13.695406943810	0.65175644881805
13.651751275046	0.65184097835500
13.608373036768	0.65192494528745
13.565269592760	0.65200836401674
13.522438340099	0.65209124883469
13.479876708633	0.65217361392294
13.437582160466	0.65225547335236
13.395552189455	0.65233684108244
13.353784320713	0.65241773096078
13.312276110124	0.65249815672252
13.271025143869	0.65257813198984
13.230029037952	0.65265767027146
13.189285437747	0.65273678496219
13.148792017544	0.65281548934245
13.108546480105	0.65289379657790
13.068546556234	0.65297171971897
13.028790004346	0.65304927170052
12.989274610052	0.65312646534148
12.949998185745	0.65320331334448
12.910958570198	0.65327982829557
12.872153628167	0.65335602266387
12.833581250000	0.65343190880135
12.795239351259	0.65350749894252
12.757125872340	0.65358280520422
12.719238778108	0.65365783958540
12.681576057530	0.65373261396690
12.644135723323	0.65380714011130
12.606915811606	0.65388142966274
12.569914381551	0.65395549414677
12.533129515050	0.65402934497025
12.496559316382	0.65410299342123
12.460201911887	0.65417645066887
12.424055449648	0.65424972776338
12.388118099174	0.65432283563595
12.352388051092	0.65439578509872
12.316863516845	0.65446858684478
12.281542728390	0.65454125144820
12.246423937908	0.65461378936396
12.211505417515	0.65468621092808
12.176785458976	0.65475852635764
12.142262373431	0.65483074575083
12.107934491115	0.65490287908707
12.073800161095	0.65497493622710
12.039857751004	0.65504692691308
12.006105646776	0.65511886076875
11.972542252396	0.65519074729958
11.939165989646	0.65526259589292
11.905975297855	0.65533441581819
11.872968633663	0.65540621622706
11.840144470774	0.65547800615370
11.807501299724	0.65554979451495
11.775037627651	0.65562159011061
11.742751978065	0.65569340162365
11.710642890625	0.65576523762050
11.678708920919	0.65583710655135
11.646948640249	0.65590901675040
11.615360635413	0.65598097643618
11.583943508501	0.65605299371190
11.552695876686	0.65612507656577
11.521616372022	0.65619723287130
11.490703641242	0.65626947038775
11.459956345566	0.65634179676039
11.429373160503	0.65641421952099
11.398952775665	0.65648674608813
11.368693894577	0.65655938376768
11.338595234493	0.65663213975314
11.308655526217	0.65670502112613
11.278873513920	0.65677803485680
11.249247954972	0.65685118780431
11.219777619760	0.65692448671724
11.190461291527	0.65699793823412
11.161297766195	0.65707154888389
11.132285852209	0.65714532508636
11.103424370370	0.65721927315277
11.074712153676	0.65729339928627
11.046148047163	0.65736770958245
11.017730907755	0.65744221002985
10.989459604106	0.65751690651053
10.961333016453	0.65759180480063
10.933350036470	0.65766691057087
10.905509567115	0.65774222938719
10.877810522496	0.65781776671126
10.850251827723	0.65789352790113
10.822832418773	0.65796951821175
10.795551242348	0.65804574279562
10.768407255747	0.65812220670339
10.741399426729	0.65819891488447
10.714526733381	0.65827587218765
10.687788163993	0.65835308336172
10.661182716927	0.65843055305615
10.634709400497	0.65850828582165
10.608367232838	0.65858628611094
10.582155241793	0.65866455827929
10.556072464789	0.65874310658527
10.530117948718	0.65882193519135
10.504290749825	0.65890104816464
10.478589933590	0.65898044947753
10.453014574616	0.65906014300840
10.427563756522	0.65914013254229
10.402236571825	0.65922042177163
10.377032121841	0.65930101429691
10.351949516575	0.65938191362741
10.326987874612	0.65946312318192
10.302146323024	0.65954464628944
10.277423997257	0.65962648618992
10.252820041040	0.65970864603498
10.228333606278	0.65979112888862
10.203963852961	0.65987393772802
10.179709949066	0.65995707544421
10.155571070461	0.66004054484287
10.131546400811	0.66012434864502
10.107635131490	0.66020848948785
10.083836461487	0.66029296992540
10.060149597315	0.66037779242937
10.036573752929	0.66046295938985
10.013108149633	0.66054847311610
9.9897520159947	0.66063433583735
9.9665045877660	0.66072054970348
9.9433651077944	0.66080711678592
9.9203328259431	0.66089403907831
9.8974069990096	0.66098131849734
9.8745868906456	0.66106895688355
9.8518717712783	0.66115695600204
9.8292609180328	0.66124531754333
9.8067536146549	0.66133404312410
9.7843491514360	0.66142313428802
9.7620468251384	0.66151259250648
9.7398459389214	0.66160241917945
9.7177458022690	0.66169261563623
9.6957457309185	0.66178318313627
9.6738450467893	0.66187412286994
9.6520430779137	0.66196543595936
9.6303391583681	0.66205712345917
9.6087326282051	0.66214918635734
9.5872228333866	0.66224162557598
9.5658091257179	0.66233444197213
9.5444908627826	0.66242763633856
9.5232674078780	0.66252120940457
9.5021381299525	0.66261516183682
9.4811024035421	0.66270949424008
9.4601596087094	0.66280420715808
9.4393091309824	0.66289930107429
9.4185503612944	0.66299477641273
9.3978826959248	0.66309063353876
9.3773055364404	0.66318687275990
9.3568182896380	0.66328349432661
9.3364203674868	0.66338049843311
9.3161111870727	0.66347788521818
9.2958901705426	0.66357565476593
9.2757567450495	0.66367380710664
9.2557103426984	0.66377234221753
9.2357504004929	0.66387126002356
9.2158763602828	0.66397056039824
9.1960876687117	0.66407024316441
9.1763837771656	0.66417030809503
9.1567641417227	0.66427075491398
9.1372282231027	0.66437158329688
9.1177754866180	0.66447279287179
9.0984054021244	0.66457438322012
9.0791174439733	0.66467635387729
9.0599110909640	0.66477870433362
9.0407858262967	0.66488143403503
9.0217411375263	0.66498454238389
9.0027765165165	0.66508802873974
8.9838914593947	0.66519189242008
8.9650854665072	0.66529613270117
8.9463580423754	0.66540074881878
8.9277086956522	0.66550573996896
8.9091369390788	0.66561110530878
8.8906422894425	0.66571684395717
8.8722242675348	0.66582295499558
8.8538823981099	0.66592943746882
8.8356162098438	0.66603629038578
8.8174252352941	0.66614351272017
8.7993090108600	0.66625110341132
8.7812670767428	0.66635906136485
8.7632989769073	0.66646738545350
8.7454042590432	0.66657607451779
8.7275824745269	0.66668512736683
8.7098331783847	0.66679454277897
8.6921559292549	0.66690431950264
8.6745502893519	0.66701445625698
8.6570158244297	0.66712495173259
8.6395521037464	0.66723580459229
8.6221587000288	0.66734701347181
8.6048351894374	0.66745857698046
8.5875811515325	0.66757049370192
8.5703961692396	0.66768276219488
8.5532798288160	0.66779538099380
8.5362317198178	0.66790834860955
8.5192514350668	0.66802166353012
8.5023385706183	0.66813532422135
8.4854927257288	0.66824932912756
8.4687135028249	0.66836367667226
8.4520005074711	0.66847836525884
8.4353533483399	0.66859339327122
8.4187716371806	0.66870875907451
8.4022549887892	0.66882446101571
8.3858030209790	0.66894049742435
8.3694153545505	0.66905686661314
8.3530916132627	0.66917356687863
8.3368314238042	0.66929059650185
8.3206344157646	0.66940795374897
8.3045002216066	0.66952563687193
8.2884284766381	0.66964364410904
8.2724188189845	0.66976197368565
8.2564708895621	0.66988062381476
8.2405843320506	0.66999959269765
8.2247587928669	0.67011887852446
8.2089939211391	0.67023847947483
8.1932893686800	0.67035839371848
8.1776447899618	0.67047861941583
8.1620598420909	0.67059915471861
8.1465341847826	0.67071999777037
8.1310674803363	0.67084114670717
8.1156593936113	0.67096259965806
8.1003095920022	0.67108435474574
8.0850177454153	0.67120641008706
8.0697835262450	0.67132876379360
8.0546066093498	0.67145141397226
8.0394866720300	0.67157435872578
8.0244233940043	0.67169759615327
8.0094164573871	0.67182112435081
