#Parameters = {thARC=0; nARC=1.25; thsub=1; p=1; nSub=4.25}
#"Wavelength / um"	"T (709) [Real Part]"
#---------------------------------------
14.008993364486	0.61729454298881
13.963318956684	0.61731151809530
13.917941411328	0.61732775493538
13.872857843591	0.61734326608324
13.828065405904	0.61735806401910
13.783561287356	0.61737216112868
13.739342713107	0.61738556970281
13.695406943810	0.61739830193698
13.651751275046	0.61741036993092
13.608373036768	0.61742178568821
13.565269592760	0.61743256111596
13.522438340099	0.61744270802436
13.479876708633	0.61745223812642
13.437582160466	0.61746116303762
13.395552189455	0.61746949427560
13.353784320713	0.61747724325991
13.312276110124	0.61748442131167
13.271025143869	0.61749103965342
13.230029037952	0.61749710940877
13.189285437747	0.61750264160227
13.148792017544	0.61750764715917
13.108546480105	0.61751213690524
13.068546556234	0.61751612156658
13.028790004346	0.61751961176951
12.989274610052	0.61752261804038
12.949998185745	0.61752515080548
12.910958570198	0.61752722039092
12.872153628167	0.61752883702254
12.833581250000	0.61753001082584
12.795239351259	0.61753075182588
12.757125872340	0.61753106994730
12.719238778108	0.61753097501421
12.681576057530	0.61753047675022
12.644135723323	0.61752958477843
12.606915811606	0.61752830862142
12.569914381551	0.61752665770129
12.533129515050	0.61752464133967
12.496559316382	0.61752226875782
12.460201911887	0.61751954907665
12.424055449648	0.61751649131679
12.388118099174	0.61751310439873
12.352388051092	0.61750939714288
12.316863516845	0.61750537826969
12.281542728390	0.61750105639980
12.246423937908	0.61749644005414
12.211505417515	0.61749153765415
12.176785458976	0.61748635752186
12.142262373431	0.61748090788013
12.107934491115	0.61747519685281
12.073800161095	0.61746923246495
12.039857751004	0.61746302264301
12.006105646776	0.61745657521507
11.972542252396	0.61744989791107
11.939165989646	0.61744299836308
11.905975297855	0.61743588410551
11.872968633663	0.61742856257540
11.840144470774	0.61742104111269
11.807501299724	0.61741332696051
11.775037627651	0.61740542726549
11.742751978065	0.61739734907802
11.710642890625	0.61738909935263
11.678708920919	0.61738068494824
11.646948640249	0.61737211262858
11.615360635413	0.61736338906246
11.583943508501	0.61735452082415
11.552695876686	0.61734551439377
11.521616372022	0.61733637615760
11.490703641242	0.61732711240852
11.459956345566	0.61731772934636
11.429373160503	0.61730823307831
11.398952775665	0.61729862961932
11.368693894577	0.61728892489252
11.338595234493	0.61727912472962
11.308655526217	0.61726923487137
11.278873513920	0.61725926096795
11.249247954972	0.61724920857946
11.219777619760	0.61723908317636
11.190461291527	0.61722889013987
11.161297766195	0.61721863476253
11.132285852209	0.61720832224859
11.103424370370	0.61719795771452
11.074712153676	0.61718754618951
11.046148047163	0.61717709261591
11.017730907755	0.61716660184979
10.989459604106	0.61715607866139
10.961333016453	0.61714552773565
10.933350036470	0.61713495367274
10.905509567115	0.61712436098854
10.877810522496	0.61711375411520
10.850251827723	0.61710313740165
10.822832418773	0.61709251511415
10.795551242348	0.61708189143684
10.768407255747	0.61707127047225
10.741399426729	0.61706065624188
10.714526733381	0.61705005268675
10.687788163993	0.61703946366796
10.661182716927	0.61702889296725
10.634709400497	0.61701834428758
10.608367232838	0.61700782125368
10.582155241793	0.61699732741266
10.556072464789	0.61698686623457
10.530117948718	0.61697644111297
10.504290749825	0.61696605536557
10.478589933590	0.61695571223477
10.453014574616	0.61694541488828
10.427563756522	0.61693516641971
10.402236571825	0.61692496984920
10.377032121841	0.61691482812397
10.351949516575	0.61690474411898
10.326987874612	0.61689472063754
10.302146323024	0.61688476041186
10.277423997257	0.61687486610377
10.252820041040	0.61686504030524
10.228333606278	0.61685528553906
10.203963852961	0.61684560425946
10.179709949066	0.61683599885270
10.155571070461	0.61682647163774
10.131546400811	0.61681702486686
10.107635131490	0.61680766072627
10.083836461487	0.61679838133677
10.060149597315	0.61678918875437
10.036573752929	0.61678008497094
10.013108149633	0.61677107191482
9.9897520159947	0.61676215145150
9.9665045877660	0.61675332538426
9.9433651077944	0.61674459545475
9.9203328259431	0.61673596334371
9.8974069990096	0.61672743067157
9.8745868906456	0.61671899899913
9.8518717712783	0.61671066982815
9.8292609180328	0.61670244460206
9.8067536146549	0.61669432470657
9.7843491514360	0.61668631147031
9.7620468251384	0.61667840616553
9.7398459389214	0.61667061000869
9.7177458022690	0.61666292416113
9.6957457309185	0.61665534972973
9.6738450467893	0.61664788776756
9.6520430779137	0.61664053927450
9.6303391583681	0.61663330519793
9.6087326282051	0.61662618643335
9.5872228333866	0.61661918382503
9.5658091257179	0.61661229816667
9.5444908627826	0.61660553020205
9.5232674078780	0.61659888062566
9.5021381299525	0.61659235008337
9.4811024035421	0.61658593917304
9.4601596087094	0.61657964844522
9.4393091309824	0.61657347840374
9.4185503612944	0.61656742950637
9.3978826959248	0.61656150216550
9.3773055364404	0.61655569674872
9.3568182896380	0.61655001357952
9.3364203674868	0.61654445293786
9.3161111870727	0.61653901506088
9.2958901705426	0.61653370014350
9.2757567450495	0.61652850833906
9.2557103426984	0.61652343975994
9.2357504004929	0.61651849447822
9.2158763602828	0.61651367252630
9.1960876687117	0.61650897389751
9.1763837771656	0.61650439854676
9.1567641417227	0.61649994639117
9.1372282231027	0.61649561731067
9.1177754866180	0.61649141114863
9.0984054021244	0.61648732771250
9.0791174439733	0.61648336677438
9.0599110909640	0.61647952807170
9.0407858262967	0.61647581130778
9.0217411375263	0.61647221615248
9.0027765165165	0.61646874224275
8.9838914593947	0.61646538918333
8.9650854665072	0.61646215654725
8.9463580423754	0.61645904387652
8.9277086956522	0.61645605068266
8.9091369390788	0.61645317644736
8.8906422894425	0.61645042062301
8.8722242675348	0.61644778263334
8.8538823981099	0.61644526187399
8.8356162098438	0.61644285771310
8.8174252352941	0.61644056949188
8.7993090108600	0.61643839652520
8.7812670767428	0.61643633810219
8.7632989769073	0.61643439348676
8.7454042590432	0.61643256191823
8.7275824745269	0.61643084261185
8.7098331783847	0.61642923475941
8.6921559292549	0.61642773752976
8.6745502893519	0.61642635006938
8.6570158244297	0.61642507150297
8.6395521037464	0.61642390093396
8.6221587000288	0.61642283744506
8.6048351894374	0.61642188009886
8.5875811515325	0.61642102793828
8.5703961692396	0.61642027998719
8.5532798288160	0.61641963525093
8.5362317198178	0.61641909271679
8.5192514350668	0.61641865135461
8.5023385706183	0.61641831011725
8.4854927257288	0.61641806794113
8.4687135028249	0.61641792374677
8.4520005074711	0.61641787643927
8.4353533483399	0.61641792490882
8.4187716371806	0.61641806803123
8.4022549887892	0.61641830466843
8.3858030209790	0.61641863366895
8.3694153545505	0.61641905386842
8.3530916132627	0.61641956409007
8.3368314238042	0.61642016314521
8.3206344157646	0.61642084983372
8.3045002216066	0.61642162294451
8.2884284766381	0.61642248125603
8.2724188189845	0.61642342353670
8.2564708895621	0.61642444854540
8.2405843320506	0.61642555503194
8.2247587928669	0.61642674173749
8.2089939211391	0.61642800739506
8.1932893686800	0.61642935072995
8.1776447899618	0.61643077046018
8.1620598420909	0.61643226529693
8.1465341847826	0.61643383394501
8.1310674803363	0.61643547510326
8.1156593936113	0.61643718746498
8.1003095920022	0.61643896971838
8.0850177454153	0.61644082054698
8.0697835262450	0.61644273863002
8.0546066093498	0.61644472264291
8.0394866720300	0.61644677125758
8.0244233940043	0.61644888314295
8.0094164573871	0.61645105696524
