#Parameters = {thARC=0; nARC=1; thsub=1; p=1; nSub=4.25}
#"Wavelength / um"	"T (703) [Real Part]"
#---------------------------------------
14.008993364486	0.61729454358366
13.963318956684	0.61731151868798
13.917941411328	0.61732775552563
13.872857843591	0.61734326667083
13.828065405904	0.61735806460379
13.783561287356	0.61737216171026
13.739342713107	0.61738557028105
13.695406943810	0.61739830251165
13.651751275046	0.61741037050181
13.608373036768	0.61742178625512
13.565269592760	0.61743256167866
13.522438340099	0.61744270858264
13.479876708633	0.61745223868009
13.437582160466	0.61746116358648
13.395552189455	0.61746949481945
13.353784320713	0.61747724379855
13.312276110124	0.61748442184493
13.271025143869	0.61749104018110
13.230029037952	0.61749710993069
13.189285437747	0.61750264211826
13.148792017544	0.61750764766904
13.108546480105	0.61751213740883
13.068546556234	0.61751612206372
13.028790004346	0.61751961226003
12.989274610052	0.61752261852413
12.949998185745	0.61752515128229
12.910958570198	0.61752722086064
12.872153628167	0.61752883748503
12.833581250000	0.61753001128094
12.795239351259	0.61753075227345
12.757125872340	0.61753107038720
12.719238778108	0.61753097544630
12.681576057530	0.61753047717437
12.644135723323	0.61752958519451
12.606915811606	0.61752830902930
12.569914381551	0.61752665810084
12.533129515050	0.61752464173079
12.496559316382	0.61752226914038
12.460201911887	0.61751954945052
12.424055449648	0.61751649168188
12.388118099174	0.61751310475493
12.352388051092	0.61750939749008
12.316863516845	0.61750537860780
12.281542728390	0.61750105672871
12.246423937908	0.61749644037377
12.211505417515	0.61749153796440
12.176785458976	0.61748635782264
12.142262373431	0.61748090817136
12.107934491115	0.61747519713441
12.073800161095	0.61746923273684
12.039857751004	0.61746302290512
12.006105646776	0.61745657546732
11.972542252396	0.61744989815340
11.939165989646	0.61744299859542
11.905975297855	0.61743588432779
11.872968633663	0.61742856278756
11.840144470774	0.61742104131468
11.807501299724	0.61741332715228
11.775037627651	0.61740542744698
11.742751978065	0.61739734924919
11.710642890625	0.61738909951343
11.678708920919	0.61738068509864
11.646948640249	0.61737211276853
11.615360635413	0.61736338919192
11.583943508501	0.61735452094309
11.552695876686	0.61734551450216
11.521616372022	0.61733637625541
11.490703641242	0.61732711249573
11.459956345566	0.61731772942295
11.429373160503	0.61730823314426
11.398952775665	0.61729862967461
11.368693894577	0.61728892493713
11.338595234493	0.61727912476355
11.308655526217	0.61726923489461
11.278873513920	0.61725926098049
11.249247954972	0.61724920858131
11.219777619760	0.61723908316749
11.190461291527	0.61722889012031
11.161297766195	0.61721863473227
11.132285852209	0.61720832220764
11.103424370370	0.61719795766290
11.074712153676	0.61718754612721
11.046148047163	0.61717709254296
11.017730907755	0.61716660176621
10.989459604106	0.61715607856719
10.961333016453	0.61714552763086
10.933350036470	0.61713495355738
10.905509567115	0.61712436086264
10.877810522496	0.61711375397878
10.850251827723	0.61710313725474
10.822832418773	0.61709251495680
10.795551242348	0.61708189126907
10.768407255747	0.61707127029411
10.741399426729	0.61706065605340
10.714526733381	0.61705005248797
10.687788163993	0.61703946345893
10.661182716927	0.61702889274802
10.634709400497	0.61701834405819
10.608367232838	0.61700782101419
10.582155241793	0.61699732716312
10.556072464789	0.61698686597502
10.530117948718	0.61697644084348
10.504290749825	0.61696605508620
10.478589933590	0.61695571194558
10.453014574616	0.61694541458933
10.427563756522	0.61693516611107
10.402236571825	0.61692496953092
10.377032121841	0.61691482779613
10.351949516575	0.61690474378166
10.326987874612	0.61689472029079
10.302146323024	0.61688476005577
10.277423997257	0.61687486573840
10.252820041040	0.61686503993068
10.228333606278	0.61685528515538
10.203963852961	0.61684560386674
10.179709949066	0.61683599845103
10.155571070461	0.61682647122720
10.131546400811	0.61681702444754
10.107635131490	0.61680766029825
10.083836461487	0.61679838090014
10.060149597315	0.61678918830921
10.036573752929	0.61678008451734
10.013108149633	0.61677107145289
9.9897520159947	0.61676215098133
9.9665045877660	0.61675332490593
9.9433651077944	0.61674459496837
9.9203328259431	0.61673596284937
9.8974069990096	0.61672743016938
9.8745868906456	0.61671899848918
9.8518717712783	0.61671066931055
9.8292609180328	0.61670244407691
9.8067536146549	0.61669432417396
9.7843491514360	0.61668631093037
9.7620468251384	0.61667840561835
9.7398459389214	0.61667060945438
9.7177458022690	0.61666292359980
9.6957457309185	0.61665534916149
9.6738450467893	0.61664788719252
9.6520430779137	0.61664053869278
9.6303391583681	0.61663330460963
9.6087326282051	0.61662618583859
9.5872228333866	0.61661918322392
9.5658091257179	0.61661229755933
9.5444908627826	0.61660552958860
9.5232674078780	0.61659888000621
9.5021381299525	0.61659234945804
9.4811024035421	0.61658593854196
9.4601596087094	0.61657964780849
9.4393091309824	0.61657347776149
9.4185503612944	0.61656742885873
9.3978826959248	0.61656150151258
9.3773055364404	0.61655569609065
9.3568182896380	0.61655001291641
9.3364203674868	0.61654445226985
9.3161111870727	0.61653901438809
9.2958901705426	0.61653369946605
9.2757567450495	0.61652850765708
9.2557103426984	0.61652343907355
9.2357504004929	0.61651849378756
9.2158763602828	0.61651367183148
9.1960876687117	0.61650897319867
9.1763837771656	0.61650439784403
9.1567641417227	0.61649994568467
9.1372282231027	0.61649561660053
9.1177754866180	0.61649141043499
9.0984054021244	0.61648732699547
9.0791174439733	0.61648336605410
9.0599110909640	0.61647952734830
9.0407858262967	0.61647581058140
9.0217411375263	0.61647221542323
9.0027765165165	0.61646874151078
8.9838914593947	0.61646538844876
8.9650854665072	0.61646215581022
8.9463580423754	0.61645904313715
8.9277086956522	0.61645604994109
8.9091369390788	0.61645317570371
8.8906422894425	0.61645041987742
8.8722242675348	0.61644778188595
8.8538823981099	0.61644526112492
8.8356162098438	0.61644285696248
8.8174252352941	0.61644056873985
8.7993090108600	0.61643839577189
8.7812670767428	0.61643633734773
8.7632989769073	0.61643439273128
8.7454042590432	0.61643256116186
8.7275824745269	0.61643084185473
8.7098331783847	0.61642923400166
8.6921559292549	0.61642773677151
8.6745502893519	0.61642634931077
8.6570158244297	0.61642507074413
8.6395521037464	0.61642390017502
8.6221587000288	0.61642283668615
8.6048351894374	0.61642187934010
8.5875811515325	0.61642102717980
8.5703961692396	0.61642027922913
8.5532798288160	0.61641963449341
8.5362317198178	0.61641909195995
8.5192514350668	0.61641865059857
8.5023385706183	0.61641830936213
8.4854927257288	0.61641806718707
8.4687135028249	0.61641792299389
8.4520005074711	0.61641787568769
8.4353533483399	0.61641792415868
8.4187716371806	0.61641806728265
8.4022549887892	0.61641830392153
8.3858030209790	0.61641863292386
8.3694153545505	0.61641905312526
8.3530916132627	0.61641956334896
8.3368314238042	0.61642016240628
8.3206344157646	0.61642084909708
8.3045002216066	0.61642162221030
8.2884284766381	0.61642248052435
8.2724188189845	0.61642342280768
8.2564708895621	0.61642444781916
8.2405843320506	0.61642555430859
8.2247587928669	0.61642674101716
8.2089939211391	0.61642800667786
8.1932893686800	0.61642935001600
8.1776447899618	0.61643076974959
8.1620598420909	0.61643226458982
8.1465341847826	0.61643383324149
8.1310674803363	0.61643547440345
8.1156593936113	0.61643718676898
8.1003095920022	0.61643896902631
8.0850177454153	0.61644081985894
8.0697835262450	0.61644273794614
8.0546066093498	0.61644472196328
8.0394866720300	0.61644677058232
8.0244233940043	0.61644888247216
8.0094164573871	0.61645105629903
