#Parameters = {thARC=0; nARC=1.75; thsub=1; p=1; nSub=4.25}
#"Wavelength / um"	"T (721) [Real Part]"
#---------------------------------------
14.008993364486	0.61729454322118
13.963318956684	0.61731151832749
13.917941411328	0.61732775516730
13.872857843591	0.61734326631482
13.828065405904	0.61735806425024
13.783561287356	0.61737216135931
13.739342713107	0.61738556993286
13.695406943810	0.61739830216636
13.651751275046	0.61741037015955
13.608373036768	0.61742178591603
13.565269592760	0.61743256134288
13.522438340099	0.61744270825031
13.479876708633	0.61745223835132
13.437582160466	0.61746116326140
13.395552189455	0.61746949449820
13.353784320713	0.61747724348125
13.312276110124	0.61748442153169
13.271025143869	0.61749103987204
13.230029037952	0.61749710962593
13.189285437747	0.61750264181790
13.148792017544	0.61750764737321
13.108546480105	0.61751213711762
13.068546556234	0.61751612177725
13.028790004346	0.61751961197839
12.989274610052	0.61752261824742
12.949998185745	0.61752515101062
12.910958570198	0.61752722059410
12.872153628167	0.61752883722370
12.833581250000	0.61753001102492
12.795239351259	0.61753075202284
12.757125872340	0.61753107014207
12.719238778108	0.61753097520674
12.681576057530	0.61753047694047
12.644135723323	0.61752958496633
12.606915811606	0.61752830880693
12.569914381551	0.61752665788435
12.533129515050	0.61752464152025
12.496559316382	0.61752226893586
12.460201911887	0.61751954925209
12.424055449648	0.61751649148961
12.388118099174	0.61751310456887
12.352388051092	0.61750939731030
12.316863516845	0.61750537843435
12.281542728390	0.61750105656165
12.246423937908	0.61749644021316
12.211505417515	0.61749153781028
12.176785458976	0.61748635767507
12.142262373431	0.61748090803038
12.107934491115	0.61747519700007
12.073800161095	0.61746923260918
12.039857751004	0.61746302278417
12.006105646776	0.61745657535313
11.972542252396	0.61744989804601
11.939165989646	0.61744299849486
11.905975297855	0.61743588423409
11.872968633663	0.61742856270076
11.840144470774	0.61742104123479
11.807501299724	0.61741332707934
11.775037627651	0.61740542738101
11.742751978065	0.61739734919021
11.710642890625	0.61738909946146
11.678708920919	0.61738068505370
11.646948640249	0.61737211273063
11.615360635413	0.61736338916109
11.583943508501	0.61735452091933
11.552695876686	0.61734551448548
11.521616372022	0.61733637624582
11.490703641242	0.61732711249324
11.459956345566	0.61731772942756
11.429373160503	0.61730823315597
11.398952775665	0.61729862969343
11.368693894577	0.61728892496306
11.338595234493	0.61727912479658
11.308655526217	0.61726923493473
11.278873513920	0.61725926102770
11.249247954972	0.61724920863560
11.219777619760	0.61723908322886
11.190461291527	0.61722889018874
11.161297766195	0.61721863480775
11.132285852209	0.61720832229015
11.103424370370	0.61719795775242
11.074712153676	0.61718754622374
11.046148047163	0.61717709264647
11.017730907755	0.61716660187667
10.989459604106	0.61715607868458
10.961333016453	0.61714552775516
10.933350036470	0.61713495368856
10.905509567115	0.61712436100067
10.877810522496	0.61711375412364
10.850251827723	0.61710313740640
10.822832418773	0.61709251511522
10.795551242348	0.61708189143422
10.768407255747	0.61707127046595
10.741399426729	0.61706065623190
10.714526733381	0.61705005267309
10.687788163993	0.61703946365063
10.661182716927	0.61702889294626
10.634709400497	0.61701834426293
10.608367232838	0.61700782122538
10.582155241793	0.61699732738071
10.556072464789	0.61698686619898
10.530117948718	0.61697644107376
10.504290749825	0.61696605532274
10.478589933590	0.61695571218833
10.453014574616	0.61694541483825
10.427563756522	0.61693516636610
10.402236571825	0.61692496979201
10.377032121841	0.61691482806323
10.351949516575	0.61690474405470
10.326987874612	0.61689472056973
10.302146323024	0.61688476034054
10.277423997257	0.61687486602895
10.252820041040	0.61686504022694
10.228333606278	0.61685528545730
10.203963852961	0.61684560417425
10.179709949066	0.61683599876406
10.155571070461	0.61682647154570
10.131546400811	0.61681702477143
10.107635131490	0.61680766062747
10.083836461487	0.61679838123463
10.060149597315	0.61678918864890
10.036573752929	0.61678008486216
10.013108149633	0.61677107180276
9.9897520159947	0.61676215133619
9.9665045877660	0.61675332526570
9.9433651077944	0.61674459533298
9.9203328259431	0.61673596321875
9.8974069990096	0.61672743054346
9.8745868906456	0.61671899886788
9.8518717712783	0.61671066969379
9.8292609180328	0.61670244446462
9.8067536146549	0.61669432456607
9.7843491514360	0.61668631132679
9.7620468251384	0.61667840601901
9.7398459389214	0.61667060985919
9.7177458022690	0.61666292400869
9.6957457309185	0.61665534957438
9.6738450467893	0.61664788760933
9.6520430779137	0.61664053911342
9.6303391583681	0.61663330503403
9.6087326282051	0.61662618626665
9.5872228333866	0.61661918365557
9.5658091257179	0.61661229799449
9.5444908627826	0.61660553002717
9.5232674078780	0.61659888044812
9.5021381299525	0.61659234990320
9.4811024035421	0.61658593899028
9.4601596087094	0.61657964825990
9.4393091309824	0.61657347821589
9.4185503612944	0.61656742931603
9.3978826959248	0.61656150197270
9.3773055364404	0.61655569655350
9.3568182896380	0.61655001338191
9.3364203674868	0.61654445273790
9.3161111870727	0.61653901485861
9.2958901705426	0.61653369993895
9.2757567450495	0.61652850813227
9.2557103426984	0.61652343955095
9.2357504004929	0.61651849426706
9.2158763602828	0.61651367231301
9.1960876687117	0.61650897368213
9.1763837771656	0.61650439832934
9.1567641417227	0.61649994617174
9.1372282231027	0.61649561708926
9.1177754866180	0.61649141092529
9.0984054021244	0.61648732748725
9.0791174439733	0.61648336654728
9.0599110909640	0.61647952784279
9.0407858262967	0.61647581107709
9.0217411375263	0.61647221592005
9.0027765165165	0.61646874200863
8.9838914593947	0.61646538894755
8.9650854665072	0.61646215630986
8.9463580423754	0.61645904363755
8.9277086956522	0.61645605044216
8.9091369390788	0.61645317620536
8.8906422894425	0.61645042037956
8.8722242675348	0.61644778238849
8.8538823981099	0.61644526162777
8.8356162098438	0.61644285746555
8.8174252352941	0.61644056924304
8.7993090108600	0.61643839627513
8.7812670767428	0.61643633785091
8.7632989769073	0.61643439323433
8.7454042590432	0.61643256166468
8.7275824745269	0.61643084235723
8.7098331783847	0.61642923450376
8.6921559292549	0.61642773727311
8.6745502893519	0.61642634981179
8.6570158244297	0.61642507124448
8.6395521037464	0.61642390067461
8.6221587000288	0.61642283718489
8.6048351894374	0.61642187983791
8.5875811515325	0.61642102767660
8.5703961692396	0.61642027972482
8.5532798288160	0.61641963498791
8.5362317198178	0.61641909245317
8.5192514350668	0.61641865109043
8.5023385706183	0.61641830985254
8.4854927257288	0.61641806767595
8.4687135028249	0.61641792348116
8.4520005074711	0.61641787617326
8.4353533483399	0.61641792464246
8.4187716371806	0.61641806776457
8.4022549887892	0.61641830440151
8.3858030209790	0.61641863340181
8.3694153545505	0.61641905360110
8.3530916132627	0.61641956382261
8.3368314238042	0.61642016287766
8.3206344157646	0.61642084956612
8.3045002216066	0.61642162267690
8.2884284766381	0.61642248098845
8.2724188189845	0.61642342326920
8.2564708895621	0.61642444827802
8.2405843320506	0.61642555476471
8.2247587928669	0.61642674147046
8.2089939211391	0.61642800712827
8.1932893686800	0.61642935046345
8.1776447899618	0.61643077019400
8.1620598420909	0.61643226503112
8.1465341847826	0.61643383367961
8.1310674803363	0.61643547483830
8.1156593936113	0.61643718720051
8.1003095920022	0.61643896945443
8.0850177454153	0.61644082028360
8.0697835262450	0.61644273836725
8.0546066093498	0.61644472238079
8.0394866720300	0.61644677099615
8.0244233940043	0.61644888288224
8.0094164573871	0.61645105670530
