#Parameters = {thARC=0; nARC=2.5; thsub=1; p=1; nSub=4.25}
#"Wavelength / um"	"T (739) [Real Part]"
#---------------------------------------
14.008993364486	0.61729454357691
13.963318956684	0.61731151868117
13.917941411328	0.61732775551878
13.872857843591	0.61734326666393
13.828065405904	0.61735806459685
13.783561287356	0.61737216170327
13.739342713107	0.61738557027402
13.695406943810	0.61739830250458
13.651751275046	0.61741037049470
13.608373036768	0.61742178624797
13.565269592760	0.61743256167147
13.522438340099	0.61744270857542
13.479876708633	0.61745223867283
13.437582160466	0.61746116357918
13.395552189455	0.61746949481212
13.353784320713	0.61747724379119
13.312276110124	0.61748442183754
13.271025143869	0.61749104017367
13.230029037952	0.61749710992324
13.189285437747	0.61750264211078
13.148792017544	0.61750764766154
13.108546480105	0.61751213740130
13.068546556234	0.61751612205616
13.028790004346	0.61751961225245
12.989274610052	0.61752261851652
12.949998185745	0.61752515127466
12.910958570198	0.61752722085299
12.872153628167	0.61752883747735
12.833581250000	0.61753001127324
12.795239351259	0.61753075226574
12.757125872340	0.61753107037946
12.719238778108	0.61753097543855
12.681576057530	0.61753047716660
12.644135723323	0.61752958518672
12.606915811606	0.61752830902150
12.569914381551	0.61752665809302
12.533129515050	0.61752464172295
12.496559316382	0.61752226913253
12.460201911887	0.61751954944266
12.424055449648	0.61751649167400
12.388118099174	0.61751310474704
12.352388051092	0.61750939748218
12.316863516845	0.61750537859989
12.281542728390	0.61750105672079
12.246423937908	0.61749644036584
12.211505417515	0.61749153795645
12.176785458976	0.61748635781469
12.142262373431	0.61748090816340
12.107934491115	0.61747519712644
12.073800161095	0.61746923272886
12.039857751004	0.61746302289713
12.006105646776	0.61745657545932
11.972542252396	0.61744989814539
11.939165989646	0.61744299858741
11.905975297855	0.61743588431977
11.872968633663	0.61742856277954
11.840144470774	0.61742104130665
11.807501299724	0.61741332714424
11.775037627651	0.61740542743894
11.742751978065	0.61739734924115
11.710642890625	0.61738909950538
11.678708920919	0.61738068509058
11.646948640249	0.61737211276047
11.615360635413	0.61736338918385
11.583943508501	0.61735452093502
11.552695876686	0.61734551449409
11.521616372022	0.61733637624734
11.490703641242	0.61732711248765
11.459956345566	0.61731772941487
11.429373160503	0.61730823313617
11.398952775665	0.61729862966652
11.368693894577	0.61728892492904
11.338595234493	0.61727912475546
11.308655526217	0.61726923488651
11.278873513920	0.61725926097239
11.249247954972	0.61724920857321
11.219777619760	0.61723908315939
11.190461291527	0.61722889011221
11.161297766195	0.61721863472417
11.132285852209	0.61720832219954
11.103424370370	0.61719795765479
11.074712153676	0.61718754611910
11.046148047163	0.61717709253486
11.017730907755	0.61716660175810
10.989459604106	0.61715607855908
10.961333016453	0.61714552762275
10.933350036470	0.61713495354927
10.905509567115	0.61712436085452
10.877810522496	0.61711375397066
10.850251827723	0.61710313724663
10.822832418773	0.61709251494868
10.795551242348	0.61708189126095
10.768407255747	0.61707127028598
10.741399426729	0.61706065604527
10.714526733381	0.61705005247985
10.687788163993	0.61703946345081
10.661182716927	0.61702889273989
10.634709400497	0.61701834405006
10.608367232838	0.61700782100606
10.582155241793	0.61699732715498
10.556072464789	0.61698686596689
10.530117948718	0.61697644083535
10.504290749825	0.61696605507807
10.478589933590	0.61695571193744
10.453014574616	0.61694541458119
10.427563756522	0.61693516610292
10.402236571825	0.61692496952278
10.377032121841	0.61691482778799
10.351949516575	0.61690474377351
10.326987874612	0.61689472028264
10.302146323024	0.61688476004762
10.277423997257	0.61687486573025
10.252820041040	0.61686503992252
10.228333606278	0.61685528514722
10.203963852961	0.61684560385858
10.179709949066	0.61683599844286
10.155571070461	0.61682647121904
10.131546400811	0.61681702443937
10.107635131490	0.61680766029007
10.083836461487	0.61679838089196
10.060149597315	0.61678918830103
10.036573752929	0.61678008450916
10.013108149633	0.61677107144470
9.9897520159947	0.61676215097314
9.9665045877660	0.61675332489773
9.9433651077944	0.61674459496017
9.9203328259431	0.61673596284117
9.8974069990096	0.61672743016117
9.8745868906456	0.61671899848097
9.8518717712783	0.61671066930233
9.8292609180328	0.61670244406868
9.8067536146549	0.61669432416574
9.7843491514360	0.61668631092214
9.7620468251384	0.61667840561011
9.7398459389214	0.61667060944614
9.7177458022690	0.61666292359155
9.6957457309185	0.61665534915324
9.6738450467893	0.61664788718426
9.6520430779137	0.61664053868451
9.6303391583681	0.61663330460136
9.6087326282051	0.61662618583031
9.5872228333866	0.61661918321564
9.5658091257179	0.61661229755104
9.5444908627826	0.61660552958030
9.5232674078780	0.61659887999791
9.5021381299525	0.61659234944973
9.4811024035421	0.61658593853364
9.4601596087094	0.61657964780017
9.4393091309824	0.61657347775316
9.4185503612944	0.61656742885039
9.3978826959248	0.61656150150423
9.3773055364404	0.61655569608229
9.3568182896380	0.61655001290805
9.3364203674868	0.61654445226147
9.3161111870727	0.61653901437971
9.2958901705426	0.61653369945766
9.2757567450495	0.61652850764868
9.2557103426984	0.61652343906514
9.2357504004929	0.61651849377914
9.2158763602828	0.61651367182306
9.1960876687117	0.61650897319023
9.1763837771656	0.61650439783559
9.1567641417227	0.61649994567622
9.1372282231027	0.61649561659207
9.1177754866180	0.61649141042651
9.0984054021244	0.61648732698698
9.0791174439733	0.61648336604561
9.0599110909640	0.61647952733980
9.0407858262967	0.61647581057288
9.0217411375263	0.61647221541471
9.0027765165165	0.61646874150225
8.9838914593947	0.61646538844021
8.9650854665072	0.61646215580166
8.9463580423754	0.61645904312858
8.9277086956522	0.61645604993251
8.9091369390788	0.61645317569512
8.8906422894425	0.61645041986882
8.8722242675348	0.61644778187733
8.8538823981099	0.61644526111630
8.8356162098438	0.61644285695385
8.8174252352941	0.61644056873120
8.7993090108600	0.61643839576323
8.7812670767428	0.61643633733905
8.7632989769073	0.61643439272260
8.7454042590432	0.61643256115316
8.7275824745269	0.61643084184602
8.7098331783847	0.61642923399294
8.6921559292549	0.61642773676278
8.6745502893519	0.61642634930202
8.6570158244297	0.61642507073537
8.6395521037464	0.61642390016624
8.6221587000288	0.61642283667736
8.6048351894374	0.61642187933129
8.5875811515325	0.61642102717099
8.5703961692396	0.61642027922030
8.5532798288160	0.61641963448457
8.5362317198178	0.61641909195109
8.5192514350668	0.61641865058969
8.5023385706183	0.61641830935325
8.4854927257288	0.61641806717817
8.4687135028249	0.61641792298498
8.4520005074711	0.61641787567877
8.4353533483399	0.61641792414974
8.4187716371806	0.61641806727369
8.4022549887892	0.61641830391256
8.3858030209790	0.61641863291487
8.3694153545505	0.61641905311626
8.3530916132627	0.61641956333995
8.3368314238042	0.61642016239725
8.3206344157646	0.61642084908804
8.3045002216066	0.61642162220124
8.2884284766381	0.61642248051528
8.2724188189845	0.61642342279859
8.2564708895621	0.61642444781006
8.2405843320506	0.61642555429948
8.2247587928669	0.61642674100803
8.2089939211391	0.61642800666872
8.1932893686800	0.61642935000684
8.1776447899618	0.61643076974041
8.1620598420909	0.61643226458063
8.1465341847826	0.61643383323229
8.1310674803363	0.61643547439422
8.1156593936113	0.61643718675974
8.1003095920022	0.61643896901705
8.0850177454153	0.61644081984967
8.0697835262450	0.61644273793685
8.0546066093498	0.61644472195398
8.0394866720300	0.61644677057301
8.0244233940043	0.61644888246282
8.0094164573871	0.61645105628968
