#Parameters = {thARC=0; nARC=1.75; thsub=1; p=1; nSub=1.25}
#"Wavelength / um"	"T (73) [Real Part]"
#--------------------------------------
14.008993364486	0.98774818194887
13.963318956684	0.98775190625035
13.917941411328	0.98775554522610
13.872857843591	0.98775909976466
13.828065405904	0.98776257074979
13.783561287356	0.98776595906047
13.739342713107	0.98776926557088
13.695406943810	0.98777249115043
13.651751275046	0.98777563666375
13.608373036768	0.98777870297071
13.565269592760	0.98778169092642
13.522438340099	0.98778460138123
13.479876708633	0.98778743518074
13.437582160466	0.98779019316581
13.395552189455	0.98779287617256
13.353784320713	0.98779548503237
13.312276110124	0.98779802057192
13.271025143869	0.98780048361314
13.230029037952	0.98780287497327
13.189285437747	0.98780519546483
13.148792017544	0.98780744589564
13.108546480105	0.98780962706884
13.068546556234	0.98781173978288
13.028790004346	0.98781378483152
12.989274610052	0.98781576300385
12.949998185745	0.98781767508431
12.910958570198	0.98781952185266
12.872153628167	0.98782130408403
12.833581250000	0.98782302254889
12.795239351259	0.98782467801309
12.757125872340	0.98782627123782
12.719238778108	0.98782780297968
12.681576057530	0.98782927399066
12.644135723323	0.98783068501811
12.606915811606	0.98783203680480
12.569914381551	0.98783333008893
12.533129515050	0.98783456560409
12.496559316382	0.98783574407929
12.460201911887	0.98783686623901
12.424055449648	0.98783793280315
12.388118099174	0.98783894448704
12.352388051092	0.98783990200151
12.316863516845	0.98784080605283
12.281542728390	0.98784165734275
12.246423937908	0.98784245656850
12.211505417515	0.98784320442283
12.176785458976	0.98784390159395
12.142262373431	0.98784454876562
12.107934491115	0.98784514661709
12.073800161095	0.98784569582315
12.039857751004	0.98784619705413
12.006105646776	0.98784665097591
11.972542252396	0.98784705824991
11.939165989646	0.98784741953313
11.905975297855	0.98784773547814
11.872968633663	0.98784800673309
11.840144470774	0.98784823394173
11.807501299724	0.98784841774341
11.775037627651	0.98784855877309
11.742751978065	0.98784865766136
11.710642890625	0.98784871503443
11.678708920919	0.98784873151417
11.646948640249	0.98784870771807
11.615360635413	0.98784864425933
11.583943508501	0.98784854174677
11.552695876686	0.98784840078493
11.521616372022	0.98784822197402
11.490703641242	0.98784800590998
11.459956345566	0.98784775318442
11.429373160503	0.98784746438471
11.398952775665	0.98784714009393
11.368693894577	0.98784678089093
11.338595234493	0.98784638735030
11.308655526217	0.98784596004237
11.278873513920	0.98784549953330
11.249247954972	0.98784500638499
11.219777619760	0.98784448115516
11.190461291527	0.98784392439733
11.161297766195	0.98784333666084
11.132285852209	0.98784271849087
11.103424370370	0.98784207042844
11.074712153676	0.98784139301040
11.046148047163	0.98784068676949
11.017730907755	0.98783995223431
10.989459604106	0.98783918992936
10.961333016453	0.98783840037502
10.933350036470	0.98783758408759
10.905509567115	0.98783674157930
10.877810522496	0.98783587335828
10.850251827723	0.98783497992863
10.822832418773	0.98783406179041
10.795551242348	0.98783311943962
10.768407255747	0.98783215336827
10.741399426729	0.98783116406432
10.714526733381	0.98783015201178
10.687788163993	0.98782911769063
10.661182716927	0.98782806157691
10.634709400497	0.98782698414268
10.608367232838	0.98782588585604
10.582155241793	0.98782476718118
10.556072464789	0.98782362857835
10.530117948718	0.98782247050388
10.504290749825	0.98782129341019
10.478589933590	0.98782009774585
10.453014574616	0.98781888395551
10.427563756522	0.98781765247998
10.402236571825	0.98781640375620
10.377032121841	0.98781513821729
10.351949516575	0.98781385629254
10.326987874612	0.98781255840740
10.302146323024	0.98781124498355
10.277423997257	0.98780991643886
10.252820041040	0.98780857318743
10.228333606278	0.98780721563960
10.203963852961	0.98780584420196
10.179709949066	0.98780445927734
10.155571070461	0.98780306126488
10.131546400811	0.98780165055997
10.107635131490	0.98780022755432
10.083836461487	0.98779879263596
10.060149597315	0.98779734618923
10.036573752929	0.98779588859481
10.013108149633	0.98779442022975
9.9897520159947	0.98779294146745
9.9665045877660	0.98779145267768
9.9433651077944	0.98778995422663
9.9203328259431	0.98778844647687
9.8974069990096	0.98778692978739
9.8745868906456	0.98778540451362
9.8518717712783	0.98778387100744
9.8292609180328	0.98778232961718
9.8067536146549	0.98778078068763
9.7843491514360	0.98777922456009
9.7620468251384	0.98777766157233
9.7398459389214	0.98777609205867
9.7177458022690	0.98777451634991
9.6957457309185	0.98777293477342
9.6738450467893	0.98777134765312
9.6520430779137	0.98776975530948
9.6303391583681	0.98776815805957
9.6087326282051	0.98776655621705
9.5872228333866	0.98776495009216
9.5658091257179	0.98776333999180
9.5444908627826	0.98776172621948
9.5232674078780	0.98776010907537
9.5021381299525	0.98775848885630
9.4811024035421	0.98775686585577
9.4601596087094	0.98775524036398
9.4393091309824	0.98775361266783
9.4185503612944	0.98775198305093
9.3978826959248	0.98775035179364
9.3773055364404	0.98774871917305
9.3568182896380	0.98774708546302
9.3364203674868	0.98774545093417
9.3161111870727	0.98774381585394
9.2958901705426	0.98774218048653
9.2757567450495	0.98774054509299
9.2557103426984	0.98773890993118
9.2357504004929	0.98773727525581
9.2158763602828	0.98773564131847
9.1960876687117	0.98773400836759
9.1763837771656	0.98773237664850
9.1567641417227	0.98773074640344
9.1372282231027	0.98772911787157
9.1177754866180	0.98772749128895
9.0984054021244	0.98772586688861
9.0791174439733	0.98772424490054
9.0599110909640	0.98772262555170
9.0407858262967	0.98772100906602
9.0217411375263	0.98771939566445
9.0027765165165	0.98771778556496
8.9838914593947	0.98771617898254
8.9650854665072	0.98771457612923
8.9463580423754	0.98771297721411
8.9277086956522	0.98771138244337
8.9091369390788	0.98770979202027
8.8906422894425	0.98770820614517
8.8722242675348	0.98770662501554
8.8538823981099	0.98770504882601
8.8356162098438	0.98770347776833
8.8174252352941	0.98770191203142
8.7993090108600	0.98770035180137
8.7812670767428	0.98769879726148
8.7632989769073	0.98769724859224
8.7454042590432	0.98769570597135
8.7275824745269	0.98769416957376
8.7098331783847	0.98769263957167
8.6921559292549	0.98769111613452
8.6745502893519	0.98768959942907
8.6570158244297	0.98768808961932
8.6395521037464	0.98768658686662
8.6221587000288	0.98768509132962
8.6048351894374	0.98768360316432
8.5875811515325	0.98768212252406
8.5703961692396	0.98768064955954
8.5532798288160	0.98767918441887
8.5362317198178	0.98767772724753
8.5192514350668	0.98767627818841
8.5023385706183	0.98767483738183
8.4854927257288	0.98767340496556
8.4687135028249	0.98767198107481
8.4520005074711	0.98767056584226
8.4353533483399	0.98766915939808
8.4187716371806	0.98766776186994
8.4022549887892	0.98766637338302
8.3858030209790	0.98766499406002
8.3694153545505	0.98766362402120
8.3530916132627	0.98766226338435
8.3368314238042	0.98766091226487
8.3206344157646	0.98765957077571
8.3045002216066	0.98765823902745
8.2884284766381	0.98765691712826
8.2724188189845	0.98765560518398
8.2564708895621	0.98765430329805
8.2405843320506	0.98765301157161
8.2247587928669	0.98765173010345
8.2089939211391	0.98765045899005
8.1932893686800	0.98764919832563
8.1776447899618	0.98764794820207
8.1620598420909	0.98764670870905
8.1465341847826	0.98764547993395
8.1310674803363	0.98764426196194
8.1156593936113	0.98764305487595
8.1003095920022	0.98764185875673
8.0850177454153	0.98764067368281
8.0697835262450	0.98763949973057
8.0546066093498	0.98763833697420
8.0394866720300	0.98763718548577
8.0244233940043	0.98763604533519
8.0094164573871	0.98763491659028
