#Parameters = {thARC=0.4; nARC=1; thsub=1; p=1; nSub=4.5}
#"Wavelength / um"	"T (759) [Real Part]"
#---------------------------------------
14.008993364486	0.59504249722545
13.963318956684	0.59504250149502
13.917941411328	0.59504249934689
13.872857843591	0.59504249106070
13.828065405904	0.59504247691105
13.783561287356	0.59504245716747
13.739342713107	0.59504243209449
13.695406943810	0.59504240195163
13.651751275046	0.59504236699346
13.608373036768	0.59504232746960
13.565269592760	0.59504228362478
13.522438340099	0.59504223569885
13.479876708633	0.59504218392680
13.437582160466	0.59504212853880
13.395552189455	0.59504206976026
13.353784320713	0.59504200781181
13.312276110124	0.59504194290935
13.271025143869	0.59504187526411
13.230029037952	0.59504180508265
13.189285437747	0.59504173256689
13.148792017544	0.59504165791416
13.108546480105	0.59504158131725
13.068546556234	0.59504150296439
13.028790004346	0.59504142303933
12.989274610052	0.59504134172137
12.949998185745	0.59504125918536
12.910958570198	0.59504117560178
12.872153628167	0.59504109113674
12.833581250000	0.59504100595204
12.795239351259	0.59504092020521
12.757125872340	0.59504083404950
12.719238778108	0.59504074763397
12.681576057530	0.59504066110351
12.644135723323	0.59504057459885
12.606915811606	0.59504048825665
12.569914381551	0.59504040220948
12.533129515050	0.59504031658591
12.496559316382	0.59504023151051
12.460201911887	0.59504014710389
12.424055449648	0.59504006348278
12.388118099174	0.59503998076002
12.352388051092	0.59503989904461
12.316863516845	0.59503981844178
12.281542728390	0.59503973905298
12.246423937908	0.59503966097598
12.211505417515	0.59503958430484
12.176785458976	0.59503950913001
12.142262373431	0.59503943553833
12.107934491115	0.59503936361310
12.073800161095	0.59503929343408
12.039857751004	0.59503922507760
12.006105646776	0.59503915861651
11.972542252396	0.59503909412030
11.939165989646	0.59503903165510
11.905975297855	0.59503897128372
11.872968633663	0.59503891306571
11.840144470774	0.59503885705739
11.807501299724	0.59503880331190
11.775037627651	0.59503875187921
11.742751978065	0.59503870280622
11.710642890625	0.59503865613675
11.678708920919	0.59503861191159
11.646948640249	0.59503857016856
11.615360635413	0.59503853094255
11.583943508501	0.59503849426554
11.552695876686	0.59503846016667
11.521616372022	0.59503842867226
11.490703641242	0.59503839980585
11.459956345566	0.59503837358826
11.429373160503	0.59503835003764
11.398952775665	0.59503832916946
11.368693894577	0.59503831099662
11.338595234493	0.59503829552944
11.308655526217	0.59503828277573
11.278873513920	0.59503827274081
11.249247954972	0.59503826542757
11.219777619760	0.59503826083652
11.190461291527	0.59503825896580
11.161297766195	0.59503825981125
11.132285852209	0.59503826336644
11.103424370370	0.59503826962270
11.074712153676	0.59503827856919
11.046148047163	0.59503829019292
11.017730907755	0.59503830447881
10.989459604106	0.59503832140970
10.961333016453	0.59503834096641
10.933350036470	0.59503836312780
10.905509567115	0.59503838787078
10.877810522496	0.59503841517036
10.850251827723	0.59503844499970
10.822832418773	0.59503847733015
10.795551242348	0.59503851213127
10.768407255747	0.59503854937090
10.741399426729	0.59503858901519
10.714526733381	0.59503863102863
10.687788163993	0.59503867537409
10.661182716927	0.59503872201287
10.634709400497	0.59503877090476
10.608367232838	0.59503882200802
10.582155241793	0.59503887527949
10.556072464789	0.59503893067457
10.530117948718	0.59503898814730
10.504290749825	0.59503904765038
10.478589933590	0.59503910913522
10.453014574616	0.59503917255195
10.427563756522	0.59503923784951
10.402236571825	0.59503930497564
10.377032121841	0.59503937387695
10.351949516575	0.59503944449892
10.326987874612	0.59503951678599
10.302146323024	0.59503959068156
10.277423997257	0.59503966612803
10.252820041040	0.59503974306687
10.228333606278	0.59503982143860
10.203963852961	0.59503990118287
10.179709949066	0.59503998223851
10.155571070461	0.59504006454349
10.131546400811	0.59504014803506
10.107635131490	0.59504023264971
10.083836461487	0.59504031832321
10.060149597315	0.59504040499070
10.036573752929	0.59504049258667
10.013108149633	0.59504058104502
9.9897520159947	0.59504067029907
9.9665045877660	0.59504076028165
9.9433651077944	0.59504085092506
9.9203328259431	0.59504094216115
9.8974069990096	0.59504103392137
9.8745868906456	0.59504112613675
9.8518717712783	0.59504121873796
9.8292609180328	0.59504131165536
9.8067536146549	0.59504140481901
9.7843491514360	0.59504149815869
9.7620468251384	0.59504159160398
9.7398459389214	0.59504168508424
9.7177458022690	0.59504177852867
9.6957457309185	0.59504187186633
9.6738450467893	0.59504196502617
9.6520430779137	0.59504205793708
9.6303391583681	0.59504215052789
9.6087326282051	0.59504224272742
9.5872228333866	0.59504233446449
9.5658091257179	0.59504242566800
9.5444908627826	0.59504251626687
9.5232674078780	0.59504260619016
9.5021381299525	0.59504269536705
9.4811024035421	0.59504278372687
9.4601596087094	0.59504287119912
9.4393091309824	0.59504295771354
9.4185503612944	0.59504304320009
9.3978826959248	0.59504312758900
9.3773055364404	0.59504321081079
9.3568182896380	0.59504329279629
9.3364203674868	0.59504337347668
9.3161111870727	0.59504345278350
9.2958901705426	0.59504353064869
9.2757567450495	0.59504360700461
9.2557103426984	0.59504368178405
9.2357504004929	0.59504375492026
9.2158763602828	0.59504382634700
9.1960876687117	0.59504389599852
9.1763837771656	0.59504396380961
9.1567641417227	0.59504402971563
9.1372282231027	0.59504409365250
9.1177754866180	0.59504415555676
9.0984054021244	0.59504421536554
9.0791174439733	0.59504427301666
9.0599110909640	0.59504432844855
9.0407858262967	0.59504438160037
9.0217411375263	0.59504443241195
9.0027765165165	0.59504448082387
8.9838914593947	0.59504452677744
8.9650854665072	0.59504457021473
8.9463580423754	0.59504461107859
8.9277086956522	0.59504464931268
8.9091369390788	0.59504468486146
8.8906422894425	0.59504471767024
8.8722242675348	0.59504474768516
8.8538823981099	0.59504477485325
8.8356162098438	0.59504479912240
8.8174252352941	0.59504482044143
8.7993090108600	0.59504483876005
8.7812670767428	0.59504485402890
8.7632989769073	0.59504486619959
8.7454042590432	0.59504487522466
8.7275824745269	0.59504488105764
8.7098331783847	0.59504488365306
8.6921559292549	0.59504488296642
8.6745502893519	0.59504487895425
8.6570158244297	0.59504487157413
8.6395521037464	0.59504486078463
8.6221587000288	0.59504484654542
8.6048351894374	0.59504482881720
8.5875811515325	0.59504480756176
8.5703961692396	0.59504478274197
8.5532798288160	0.59504475432179
8.5362317198178	0.59504472226630
8.5192514350668	0.59504468654167
8.5023385706183	0.59504464711523
8.4854927257288	0.59504460395540
8.4687135028249	0.59504455703179
8.4520005074711	0.59504450631512
8.4353533483399	0.59504445177728
8.4187716371806	0.59504439339135
8.4022549887892	0.59504433113154
8.3858030209790	0.59504426497328
8.3694153545505	0.59504419489316
8.3530916132627	0.59504412086898
8.3368314238042	0.59504404287971
8.3206344157646	0.59504396090557
8.3045002216066	0.59504387492794
8.2884284766381	0.59504378492944
8.2724188189845	0.59504369089391
8.2564708895621	0.59504359280640
8.2405843320506	0.59504349065319
8.2247587928669	0.59504338442178
8.2089939211391	0.59504327410093
8.1932893686800	0.59504315968059
8.1776447899618	0.59504304115199
8.1620598420909	0.59504291850756
8.1465341847826	0.59504279174100
8.1310674803363	0.59504266084724
8.1156593936113	0.59504252582245
8.1003095920022	0.59504238666404
8.0850177454153	0.59504224337066
8.0697835262450	0.59504209594223
8.0546066093498	0.59504194437987
8.0394866720300	0.59504178868597
8.0244233940043	0.59504162886416
8.0094164573871	0.59504146491930
