#Parameters = {thARC=0.4; nARC=1.75; thsub=1; p=1; nSub=1.25}
#"Wavelength / um"	"T (75) [Real Part]"
#--------------------------------------
14.008993364486	0.96993728067078
13.963318956684	0.96985206093293
13.917941411328	0.96976592349172
13.872857843591	0.96967887483005
13.828065405904	0.96959092141276
13.783561287356	0.96950206968645
13.739342713107	0.96941232607935
13.695406943810	0.96932169700113
13.651751275046	0.96923018884275
13.608373036768	0.96913780797630
13.565269592760	0.96904456075482
13.522438340099	0.96895045351219
13.479876708633	0.96885549256294
13.437582160466	0.96875968420210
13.395552189455	0.96866303470509
13.353784320713	0.96856555032752
13.312276110124	0.96846723730507
13.271025143869	0.96836810185338
13.230029037952	0.96826815016784
13.189285437747	0.96816738842352
13.148792017544	0.96806582277498
13.108546480105	0.96796345935617
13.068546556234	0.96786030428031
13.028790004346	0.96775636363969
12.989274610052	0.96765164350564
12.949998185745	0.96754614992831
12.910958570198	0.96743988893663
12.872153628167	0.96733286653811
12.833581250000	0.96722508871880
12.795239351259	0.96711656144309
12.757125872340	0.96700729065366
12.719238778108	0.96689728227134
12.681576057530	0.96678654219499
12.644135723323	0.96667507630141
12.606915811606	0.96656289044521
12.569914381551	0.96644999045873
12.533129515050	0.96633638215192
12.496559316382	0.96622207131222
12.460201911887	0.96610706370452
12.424055449648	0.96599136507100
12.388118099174	0.96587498113105
12.352388051092	0.96575791758120
12.316863516845	0.96564018009499
12.281542728390	0.96552177432294
12.246423937908	0.96540270589238
12.211505417515	0.96528298040744
12.176785458976	0.96516260344891
12.142262373431	0.96504158057418
12.107934491115	0.96491991731719
12.073800161095	0.96479761918827
12.039857751004	0.96467469167417
12.006105646776	0.96455114023788
11.972542252396	0.96442697031864
11.939165989646	0.96430218733182
11.905975297855	0.96417679666885
11.872968633663	0.96405080369720
11.840144470774	0.96392421376026
11.807501299724	0.96379703217731
11.775037627651	0.96366926424342
11.742751978065	0.96354091522945
11.710642890625	0.96341199038194
11.678708920919	0.96328249492305
11.646948640249	0.96315243405056
11.615360635413	0.96302181293777
11.583943508501	0.96289063673343
11.552695876686	0.96275891056177
11.521616372022	0.96262663952237
11.490703641242	0.96249382869014
11.459956345566	0.96236048311531
11.429373160503	0.96222660782333
11.398952775665	0.96209220781486
11.368693894577	0.96195728806575
11.338595234493	0.96182185352695
11.308655526217	0.96168590912452
11.278873513920	0.96154945975958
11.249247954972	0.96141251030826
11.219777619760	0.96127506562169
11.190461291527	0.96113713052598
11.161297766195	0.96099870982216
11.132285852209	0.96085980828618
11.103424370370	0.96072043066885
11.074712153676	0.96058058169587
11.046148047163	0.96044026606777
11.017730907755	0.96029948845990
10.989459604106	0.96015825352241
10.961333016453	0.96001656588023
10.933350036470	0.95987443013306
10.905509567115	0.95973185085538
10.877810522496	0.95958883259636
10.850251827723	0.95944537987995
10.822832418773	0.95930149720479
10.795551242348	0.95915718904425
10.768407255747	0.95901245984640
10.741399426729	0.95886731403402
10.714526733381	0.95872175600458
10.687788163993	0.95857579013025
10.661182716927	0.95842942075788
10.634709400497	0.95828265220904
10.608367232838	0.95813548878000
10.582155241793	0.95798793474169
10.556072464789	0.95783999433980
10.530117948718	0.95769167179470
10.504290749825	0.95754297130149
10.478589933590	0.95739389702999
10.453014574616	0.95724445312477
10.427563756522	0.95709464370515
10.402236571825	0.95694447286522
10.377032121841	0.95679394467383
10.351949516575	0.95664306317463
10.326987874612	0.95649183238610
10.302146323024	0.95634025630153
10.277423997257	0.95618833888906
10.252820041040	0.95603608409170
10.228333606278	0.95588349582736
10.203963852961	0.95573057798886
10.179709949066	0.95557733444396
10.155571070461	0.95542376903538
10.131546400811	0.95526988558082
10.107635131490	0.95511568787304
10.083836461487	0.95496117967980
10.060149597315	0.95480636474397
10.036573752929	0.95465124678353
10.013108149633	0.95449582949159
9.9897520159947	0.95434011653645
9.9665045877660	0.95418411156162
9.9433651077944	0.95402781818585
9.9203328259431	0.95387124000319
9.8974069990096	0.95371438058300
9.8745868906456	0.95355724347003
9.8518717712783	0.95339983218440
9.8292609180328	0.95324215022171
9.8067536146549	0.95308420105304
9.7843491514360	0.95292598812498
9.7620468251384	0.95276751485973
9.7398459389214	0.95260878465511
9.7177458022690	0.95244980088459
9.6957457309185	0.95229056689737
9.6738450467893	0.95213108601844
9.6520430779137	0.95197136154858
9.6303391583681	0.95181139676444
9.6087326282051	0.95165119491862
9.5872228333866	0.95149075923966
9.5658091257179	0.95133009293215
9.5444908627826	0.95116919917675
9.5232674078780	0.95100808113027
9.5021381299525	0.95084674192572
9.4811024035421	0.95068518467233
9.4601596087094	0.95052341245568
9.4393091309824	0.95036142833771
9.4185503612944	0.95019923535678
9.3978826959248	0.95003683652776
9.3773055364404	0.94987423484205
9.3568182896380	0.94971143326769
9.3364203674868	0.94954843474939
9.3161111870727	0.94938524220862
9.2958901705426	0.94922185854364
9.2757567450495	0.94905828662960
9.2557103426984	0.94889452931860
9.2357504004929	0.94873058943973
9.2158763602828	0.94856646979920
9.1960876687117	0.94840217318034
9.1763837771656	0.94823770234370
9.1567641417227	0.94807306002715
9.1372282231027	0.94790824894588
9.1177754866180	0.94774327179256
9.0984054021244	0.94757813123734
9.0791174439733	0.94741282992797
9.0599110909640	0.94724737048986
9.0407858262967	0.94708175552613
9.0217411375263	0.94691598761773
9.0027765165165	0.94675006932350
8.9838914593947	0.94658400318023
8.9650854665072	0.94641779170275
8.9463580423754	0.94625143738404
8.9277086956522	0.94608494269524
8.9091369390788	0.94591831008580
8.8906422894425	0.94575154198352
8.8722242675348	0.94558464079464
8.8538823981099	0.94541760890392
8.8356162098438	0.94525044867475
8.8174252352941	0.94508316244920
8.7993090108600	0.94491575254809
8.7812670767428	0.94474822127112
8.7632989769073	0.94458057089695
8.7454042590432	0.94441280368324
8.7275824745269	0.94424492186677
8.7098331783847	0.94407692766354
8.6921559292549	0.94390882326882
8.6745502893519	0.94374061085726
8.6570158244297	0.94357229258299
8.6395521037464	0.94340387057967
8.6221587000288	0.94323534696062
8.6048351894374	0.94306672381889
8.5875811515325	0.94289800322735
8.5703961692396	0.94272918723878
8.5532798288160	0.94256027788597
8.5362317198178	0.94239127718181
8.5192514350668	0.94222218711938
8.5023385706183	0.94205300967203
8.4854927257288	0.94188374679349
8.4687135028249	0.94171440041796
8.4520005074711	0.94154497246020
8.4353533483399	0.94137546481563
8.4187716371806	0.94120587936041
8.4022549887892	0.94103621795157
8.3858030209790	0.94086648242705
8.3694153545505	0.94069667460585
8.3530916132627	0.94052679628810
8.3368314238042	0.94035684925516
8.3206344157646	0.94018683526970
8.3045002216066	0.94001675607585
8.2884284766381	0.93984661339923
8.2724188189845	0.93967640894710
8.2564708895621	0.93950614440843
8.2405843320506	0.93933582145401
8.2247587928669	0.93916544173656
8.2089939211391	0.93899500689080
8.1932893686800	0.93882451853356
8.1776447899618	0.93865397826392
8.1620598420909	0.93848338766325
8.1465341847826	0.93831274829533
8.1310674803363	0.93814206170648
8.1156593936113	0.93797132942563
8.1003095920022	0.93780055296443
8.0850177454153	0.93762973381736
8.0697835262450	0.93745887346181
8.0546066093498	0.93728797335820
8.0394866720300	0.93711703495010
8.0244233940043	0.93694605966428
8.0094164573871	0.93677504891086
