#Parameters = {thARC=0; nARC=2.25; thsub=1; p=1; nSub=4.5}
#"Wavelength / um"	"T (787) [Real Part]"
#---------------------------------------
14.008993364486	0.59569008657892
13.963318956684	0.59571133493518
13.917941411328	0.59573163775668
13.872857843591	0.59575101113681
13.828065405904	0.59576947105934
13.783561287356	0.59578703339751
13.739342713107	0.59580371391306
13.695406943810	0.59581952825538
13.651751275046	0.59583449196066
13.608373036768	0.59584862045101
13.565269592760	0.59586192903370
13.522438340099	0.59587443290038
13.479876708633	0.59588614712628
13.437582160466	0.59589708666955
13.395552189455	0.59590726637052
13.353784320713	0.59591670095106
13.312276110124	0.59592540501389
13.271025143869	0.59593339304201
13.230029037952	0.59594067939809
13.189285437747	0.59594727832389
13.148792017544	0.59595320393975
13.108546480105	0.59595847024401
13.068546556234	0.59596309111263
13.028790004346	0.59596708029859
12.989274610052	0.59597045143156
12.949998185745	0.59597321801743
12.910958570198	0.59597539343790
12.872153628167	0.59597699095019
12.833581250000	0.59597802368659
12.795239351259	0.59597850465423
12.757125872340	0.59597844673471
12.719238778108	0.59597786268388
12.681576057530	0.59597676513157
12.644135723323	0.59597516658134
12.606915811606	0.59597307941031
12.569914381551	0.59597051586893
12.533129515050	0.59596748808085
12.496559316382	0.59596400804278
12.460201911887	0.59596008762435
12.424055449648	0.59595573856802
12.388118099174	0.59595097248900
12.352388051092	0.59594580087520
12.316863516845	0.59594023508719
12.281542728390	0.59593428635818
12.246423937908	0.59592796579401
12.211505417515	0.59592128437321
12.176785458976	0.59591425294699
12.142262373431	0.59590688223936
12.107934491115	0.59589918284717
12.073800161095	0.59589116524020
12.039857751004	0.59588283976133
12.006105646776	0.59587421662662
11.972542252396	0.59586530592550
11.939165989646	0.59585611762091
11.905975297855	0.59584666154953
11.872968633663	0.59583694742194
11.840144470774	0.59582698482288
11.807501299724	0.59581678321147
11.775037627651	0.59580635192148
11.742751978065	0.59579570016157
11.710642890625	0.59578483701563
11.678708920919	0.59577377144303
11.646948640249	0.59576251227899
11.615360635413	0.59575106823486
11.583943508501	0.59573944789853
11.552695876686	0.59572765973475
11.521616372022	0.59571571208551
11.490703641242	0.59570361317046
11.459956345566	0.59569137108731
11.429373160503	0.59567899381223
11.398952775665	0.59566648920029
11.368693894577	0.59565386498594
11.338595234493	0.59564112878344
11.308655526217	0.59562828808731
11.278873513920	0.59561535027290
11.249247954972	0.59560232259680
11.219777619760	0.59558921219738
11.190461291527	0.59557602609535
11.161297766195	0.59556277119424
11.132285852209	0.59554945428097
11.103424370370	0.59553608202641
11.074712153676	0.59552266098596
11.046148047163	0.59550919760008
11.017730907755	0.59549569819494
10.989459604106	0.59548216898299
10.961333016453	0.59546861606354
10.933350036470	0.59545504542347
10.905509567115	0.59544146293774
10.877810522496	0.59542787437013
10.850251827723	0.59541428537383
10.822832418773	0.59540070149212
10.795551242348	0.59538712815904
10.768407255747	0.59537357070004
10.741399426729	0.59536003433268
10.714526733381	0.59534652416733
10.687788163993	0.59533304520787
10.661182716927	0.59531960235235
10.634709400497	0.59530620039377
10.608367232838	0.59529284402076
10.582155241793	0.59527953781834
10.556072464789	0.59526628626861
10.530117948718	0.59525309375154
10.504290749825	0.59523996454571
10.478589933590	0.59522690282903
10.453014574616	0.59521391267955
10.427563756522	0.59520099807621
10.402236571825	0.59518816289959
10.377032121841	0.59517541093275
10.351949516575	0.59516274586194
10.326987874612	0.59515017127744
10.302146323024	0.59513769067437
10.277423997257	0.59512530745343
10.252820041040	0.59511302492177
10.228333606278	0.59510084629375
10.203963852961	0.59508877469178
10.179709949066	0.59507681314716
10.155571070461	0.59506496460085
10.131546400811	0.59505323190434
10.107635131490	0.59504161782047
10.083836461487	0.59503012502425
10.060149597315	0.59501875610373
10.036573752929	0.59500751356079
10.013108149633	0.59499639981205
9.9897520159947	0.59498541718967
9.9665045877660	0.59497456794220
9.9433651077944	0.59496385423547
9.9203328259431	0.59495327815340
9.8974069990096	0.59494284169889
9.8745868906456	0.59493254679468
9.8518717712783	0.59492239528419
9.8292609180328	0.59491238893239
9.8067536146549	0.59490252942668
9.7843491514360	0.59489281837775
9.7620468251384	0.59488325732045
9.7398459389214	0.59487384771465
9.7177458022690	0.59486459094612
9.6957457309185	0.59485548832743
9.6738450467893	0.59484654109875
9.6520430779137	0.59483775042880
9.6303391583681	0.59482911741569
9.6087326282051	0.59482064308779
9.5872228333866	0.59481232840465
9.5658091257179	0.59480417425780
9.5444908627826	0.59479618147170
9.5232674078780	0.59478835080457
9.5021381299525	0.59478068294930
9.4811024035421	0.59477317853427
9.4601596087094	0.59476583812432
9.4393091309824	0.59475866222153
9.4185503612944	0.59475165126615
9.3978826959248	0.59474480563745
9.3773055364404	0.59473812565461
9.3568182896380	0.59473161157759
9.3364203674868	0.59472526360799
9.3161111870727	0.59471908188992
9.2958901705426	0.59471306651088
9.2757567450495	0.59470721750264
9.2557103426984	0.59470153484206
9.2357504004929	0.59469601845202
9.2158763602828	0.59469066820222
9.1960876687117	0.59468548391007
9.1763837771656	0.59468046534157
9.1567641417227	0.59467561221214
9.1372282231027	0.59467092418745
9.1177754866180	0.59466640088436
9.0984054021244	0.59466204187166
9.0791174439733	0.59465784667102
9.0599110909640	0.59465381475776
9.0407858262967	0.59464994556175
9.0217411375263	0.59464623846819
9.0027765165165	0.59464269281852
8.9838914593947	0.59463930791120
8.9650854665072	0.59463608300257
8.9463580423754	0.59463301730767
8.9277086956522	0.59463011000105
8.9091369390788	0.59462736021763
8.8906422894425	0.59462476705351
8.8722242675348	0.59462232956676
8.8538823981099	0.59462004677826
8.8356162098438	0.59461791767249
8.8174252352941	0.59461594119836
8.7993090108600	0.59461411627000
8.7812670767428	0.59461244176756
8.7632989769073	0.59461091653799
8.7454042590432	0.59460953939585
8.7275824745269	0.59460830912412
8.7098331783847	0.59460722447492
8.6921559292549	0.59460628417035
8.6745502893519	0.59460548690323
8.6570158244297	0.59460483133787
8.6395521037464	0.59460431611088
8.6221587000288	0.59460393983187
8.6048351894374	0.59460370108426
8.5875811515325	0.59460359842599
8.5703961692396	0.59460363039030
8.5532798288160	0.59460379548647
8.5362317198178	0.59460409220055
8.5192514350668	0.59460451899610
8.5023385706183	0.59460507431490
8.4854927257288	0.59460575657772
8.4687135028249	0.59460656418499
8.4520005074711	0.59460749551756
8.4353533483399	0.59460854893737
8.4187716371806	0.59460972278817
8.4022549887892	0.59461101539625
8.3858030209790	0.59461242507108
8.3694153545505	0.59461395010604
8.3530916132627	0.59461558877908
8.3368314238042	0.59461733935342
8.3206344157646	0.59461920007821
8.3045002216066	0.59462116918921
8.2884284766381	0.59462324490942
8.2724188189845	0.59462542544978
8.2564708895621	0.59462770900979
8.2405843320506	0.59463009377818
8.2247587928669	0.59463257793352
8.2089939211391	0.59463515964489
8.1932893686800	0.59463783707247
8.1776447899618	0.59464060836820
8.1620598420909	0.59464347167636
8.1465341847826	0.59464642513422
8.1310674803363	0.59464946687261
8.1156593936113	0.59465259501654
8.1003095920022	0.59465580768578
8.0850177454153	0.59465910299547
8.0697835262450	0.59466247905668
8.0546066093498	0.59466593397698
8.0394866720300	0.59466946586102
8.0244233940043	0.59467307281111
8.0094164573871	0.59467675292773
