#Parameters = {thARC=0; nARC=2.75; thsub=1; p=1; nSub=4.5}
#"Wavelength / um"	"T (799) [Real Part]"
#---------------------------------------
14.008993364486	0.59569008671594
13.963318956684	0.59571133507107
13.917941411328	0.59573163789134
13.872857843591	0.59575101127016
13.828065405904	0.59576947119129
13.783561287356	0.59578703352796
13.739342713107	0.59580371404193
13.695406943810	0.59581952838259
13.651751275046	0.59583449208613
13.608373036768	0.59584862057466
13.565269592760	0.59586192915546
13.522438340099	0.59587443302016
13.479876708633	0.59588614724402
13.437582160466	0.59589708678518
13.395552189455	0.59590726648396
13.353784320713	0.59591670106224
13.312276110124	0.59592540512275
13.271025143869	0.59593339314849
13.230029037952	0.59594067950213
13.189285437747	0.59594727842542
13.148792017544	0.59595320403870
13.108546480105	0.59595847034035
13.068546556234	0.59596309120628
13.028790004346	0.59596708038951
12.989274610052	0.59597045151969
12.949998185745	0.59597321810272
12.910958570198	0.59597539352031
12.872153628167	0.59597699102967
12.833581250000	0.59597802376309
12.795239351259	0.59597850472770
12.757125872340	0.59597844680512
12.719238778108	0.59597786275119
12.681576057530	0.59597676519573
12.644135723323	0.59597516664233
12.606915811606	0.59597307946808
12.569914381551	0.59597051592344
12.533129515050	0.59596748813208
12.496559316382	0.59596400809069
12.460201911887	0.59596008766892
12.424055449648	0.59595573860922
12.388118099174	0.59595097252680
12.352388051092	0.59594580090958
12.316863516845	0.59594023511813
12.281542728390	0.59593428638565
12.246423937908	0.59592796581799
12.211505417515	0.59592128439368
12.176785458976	0.59591425296394
12.142262373431	0.59590688225277
12.107934491115	0.59589918285702
12.073800161095	0.59589116524649
12.039857751004	0.59588283976404
12.006105646776	0.59587421662574
11.972542252396	0.59586530592101
11.939165989646	0.59585611761282
11.905975297855	0.59584666153782
11.872968633663	0.59583694740661
11.840144470774	0.59582698480393
11.807501299724	0.59581678318890
11.775037627651	0.59580635189528
11.742751978065	0.59579570013175
11.710642890625	0.59578483698218
11.678708920919	0.59577377140596
11.646948640249	0.59576251223830
11.615360635413	0.59575106819057
11.583943508501	0.59573944785063
11.552695876686	0.59572765968324
11.521616372022	0.59571571203041
11.490703641242	0.59570361311179
11.459956345566	0.59569137102506
11.429373160503	0.59567899374642
11.398952775665	0.59566648913094
11.368693894577	0.59565386491306
11.338595234493	0.59564112870703
11.308655526217	0.59562828800741
11.278873513920	0.59561535018952
11.249247954972	0.59560232250995
11.219777619760	0.59558921210709
11.190461291527	0.59557602600163
11.161297766195	0.59556277109712
11.132285852209	0.59554945418047
11.103424370370	0.59553608192255
11.074712153676	0.59552266087876
11.046148047163	0.59550919748957
11.017730907755	0.59549569808115
10.989459604106	0.59548216886594
10.961333016453	0.59546861594327
10.933350036470	0.59545504529999
10.905509567115	0.59544146281109
10.877810522496	0.59542787424034
10.850251827723	0.59541428524093
10.822832418773	0.59540070135614
10.795551242348	0.59538712802002
10.768407255747	0.59537357055800
10.741399426729	0.59536003418767
10.714526733381	0.59534652401938
10.687788163993	0.59533304505700
10.661182716927	0.59531960219861
10.634709400497	0.59530620023719
10.608367232838	0.59529284386139
10.582155241793	0.59527953765621
10.556072464789	0.59526628610376
10.530117948718	0.59525309358401
10.504290749825	0.59523996437554
10.478589933590	0.59522690265626
10.453014574616	0.59521391250422
10.427563756522	0.59520099789836
10.402236571825	0.59518816271927
10.377032121841	0.59517541075000
10.351949516575	0.59516274567680
10.326987874612	0.59515017108996
10.302146323024	0.59513769048459
10.277423997257	0.59512530726140
10.252820041040	0.59511302472753
10.228333606278	0.59510084609734
10.203963852961	0.59508877449326
10.179709949066	0.59507681294657
10.155571070461	0.59506496439824
10.131546400811	0.59505323169975
10.107635131490	0.59504161761395
10.083836461487	0.59503012481586
10.060149597315	0.59501875589350
10.036573752929	0.59500751334879
10.013108149633	0.59499639959832
9.9897520159947	0.59498541697425
9.9665045877660	0.59497456772515
9.9433651077944	0.59496385401683
9.9203328259431	0.59495327793323
9.8974069990096	0.59494284147725
9.8745868906456	0.59493254657161
9.8518717712783	0.59492239505973
9.8292609180328	0.59491238870660
9.8067536146549	0.59490252919962
9.7843491514360	0.59489281814947
9.7620468251384	0.59488325709099
9.7398459389214	0.59487384748407
9.7177458022690	0.59486459071448
9.6957457309185	0.59485548809477
9.6738450467893	0.59484654086513
9.6520430779137	0.59483775019427
9.6303391583681	0.59482911718030
9.6087326282051	0.59482064285161
9.5872228333866	0.59481232816771
9.5658091257179	0.59480417402017
9.5444908627826	0.59479618123342
9.5232674078780	0.59478835056570
9.5021381299525	0.59478068270988
9.4811024035421	0.59477317829438
9.4601596087094	0.59476583788399
9.4393091309824	0.59475866198082
9.4185503612944	0.59475165102511
9.3978826959248	0.59474480539614
9.3773055364404	0.59473812541309
9.3568182896380	0.59473161133590
9.3364203674868	0.59472526336618
9.3161111870727	0.59471908164805
9.2958901705426	0.59471306626900
9.2757567450495	0.59470721726080
9.2557103426984	0.59470153460032
9.2357504004929	0.59469601821043
9.2158763602828	0.59469066796082
9.1960876687117	0.59468548366893
9.1763837771656	0.59468046510074
9.1567641417227	0.59467561197166
9.1372282231027	0.59467092394739
9.1177754866180	0.59466640064475
9.0984054021244	0.59466204163257
9.0791174439733	0.59465784643249
9.0599110909640	0.59465381451984
9.0407858262967	0.59464994532449
9.0217411375263	0.59464623823165
9.0027765165165	0.59464269258274
8.9838914593947	0.59463930767624
8.9650854665072	0.59463608276847
8.9463580423754	0.59463301707447
8.9277086956522	0.59463010976881
8.9091369390788	0.59462735998641
8.8906422894425	0.59462476682335
8.8722242675348	0.59462232933771
8.8538823981099	0.59462004655036
8.8356162098438	0.59461791744579
8.8174252352941	0.59461594097291
8.7993090108600	0.59461411604585
8.7812670767428	0.59461244154474
8.7632989769073	0.59461091631656
8.7454042590432	0.59460953917586
8.7275824745269	0.59460830890561
8.7098331783847	0.59460722425793
8.6921559292549	0.59460628395493
8.6745502893519	0.59460548668942
8.6570158244297	0.59460483112572
8.6395521037464	0.59460431590042
8.6221587000288	0.59460393962316
8.6048351894374	0.59460370087733
8.5875811515325	0.59460359822088
8.5703961692396	0.59460363018706
8.5532798288160	0.59460379528515
8.5362317198178	0.59460409200118
8.5192514350668	0.59460451879871
8.5023385706183	0.59460507411954
8.4854927257288	0.59460575638443
8.4687135028249	0.59460656399381
8.4520005074711	0.59460749532853
8.4353533483399	0.59460854875052
8.4187716371806	0.59460972260354
8.4022549887892	0.59461101521388
8.3858030209790	0.59461242489100
8.3694153545505	0.59461394992829
8.3530916132627	0.59461558860369
8.3368314238042	0.59461733918043
8.3206344157646	0.59461919990766
8.3045002216066	0.59462116902112
8.2884284766381	0.59462324474383
8.2724188189845	0.59462542528672
8.2564708895621	0.59462770884930
8.2405843320506	0.59463009362028
8.2247587928669	0.59463257777825
8.2089939211391	0.59463515949228
8.1932893686800	0.59463783692255
8.1776447899618	0.59464060822099
8.1620598420909	0.59464347153189
8.1465341847826	0.59464642499252
8.1310674803363	0.59464946673371
8.1156593936113	0.59465259488046
8.1003095920022	0.59465580755256
8.0850177454153	0.59465910286513
8.0697835262450	0.59466247892924
8.0546066093498	0.59466593385246
8.0394866720300	0.59466946573946
8.0244233940043	0.59467307269251
8.0094164573871	0.59467675281213
