#Parameters = {thARC=0; nARC=2.5; thsub=1; p=1; nSub=4.75}
#"Wavelength / um"	"T (847) [Real Part]"
#---------------------------------------
14.008993364486	0.57547872667518
13.963318956684	0.57550505477187
13.917941411328	0.57553018595011
13.872857843591	0.57555414046722
13.828065405904	0.57557693845920
13.783561287356	0.57559859993903
13.739342713107	0.57561914479499
13.695406943810	0.57563859278909
13.651751275046	0.57565696355547
13.608373036768	0.57567427659886
13.565269592760	0.57569055129312
13.522438340099	0.57570580687972
13.479876708633	0.57572006246642
13.437582160466	0.57573333702580
13.395552189455	0.57574564939401
13.353784320713	0.57575701826940
13.312276110124	0.57576746221134
13.271025143869	0.57577699963893
13.230029037952	0.57578564882990
13.189285437747	0.57579342791938
13.148792017544	0.57580035489890
13.108546480105	0.57580644761525
13.068546556234	0.57581172376949
13.028790004346	0.57581620091594
12.989274610052	0.57581989646129
12.949998185745	0.57582282766360
12.910958570198	0.57582501163149
12.872153628167	0.57582646532328
12.833581250000	0.57582720554618
12.795239351259	0.57582724895554
12.757125872340	0.57582661205410
12.719238778108	0.57582531119131
12.681576057530	0.57582336256265
12.644135723323	0.57582078220902
12.606915811606	0.57581758601615
12.569914381551	0.57581378971401
12.533129515050	0.57580940887635
12.496559316382	0.57580445892014
12.460201911887	0.57579895510514
12.424055449648	0.57579291253349
12.388118099174	0.57578634614928
12.352388051092	0.57577927073825
12.316863516845	0.57577170092740
12.281542728390	0.57576365118470
12.246423937908	0.57575513581886
12.211505417515	0.57574616897907
12.176785458976	0.57573676465480
12.142262373431	0.57572693667561
12.107934491115	0.57571669871103
12.073800161095	0.57570606427040
12.039857751004	0.57569504670284
12.006105646776	0.57568365919715
11.972542252396	0.57567191478179
11.939165989646	0.57565982632488
11.905975297855	0.57564740653419
11.872968633663	0.57563466795727
11.840144470774	0.57562162298145
11.807501299724	0.57560828383397
11.775037627651	0.57559466258212
11.742751978065	0.57558077113339
11.710642890625	0.57556662123565
11.678708920919	0.57555222447736
11.646948640249	0.57553759228778
11.615360635413	0.57552273593726
11.583943508501	0.57550766653748
11.552695876686	0.57549239504180
11.521616372022	0.57547693224553
11.490703641242	0.57546128878632
11.459956345566	0.57544547514451
11.429373160503	0.57542950164353
11.398952775665	0.57541337845030
11.368693894577	0.57539711557570
11.338595234493	0.57538072287499
11.308655526217	0.57536421004829
11.278873513920	0.57534758664110
11.249247954972	0.57533086204480
11.219777619760	0.57531404549720
11.190461291527	0.57529714608307
11.161297766195	0.57528017273474
11.132285852209	0.57526313423269
11.103424370370	0.57524603920614
11.074712153676	0.57522889613371
11.046148047163	0.57521171334405
11.017730907755	0.57519449901649
10.989459604106	0.57517726118177
10.961333016453	0.57516000772265
10.933350036470	0.57514274637474
10.905509567115	0.57512548472711
10.877810522496	0.57510823022312
10.850251827723	0.57509099016114
10.822832418773	0.57507377169536
10.795551242348	0.57505658183650
10.768407255747	0.57503942745273
10.741399426729	0.57502231527038
10.714526733381	0.57500525187483
10.687788163993	0.57498824371134
10.661182716927	0.57497129708592
10.634709400497	0.57495441816616
10.608367232838	0.57493761298217
10.582155241793	0.57492088742741
10.556072464789	0.57490424725965
10.530117948718	0.57488769810187
10.504290749825	0.57487124544318
10.478589933590	0.57485489463975
10.453014574616	0.57483865091580
10.427563756522	0.57482251936452
10.402236571825	0.57480650494906
10.377032121841	0.57479061250350
10.351949516575	0.57477484673386
10.326987874612	0.57475921221906
10.302146323024	0.57474371341198
10.277423997257	0.57472835464043
10.252820041040	0.57471314010821
10.228333606278	0.57469807389609
10.203963852961	0.57468315996293
10.179709949066	0.57466840214666
10.155571070461	0.57465380416537
10.131546400811	0.57463936961835
10.107635131490	0.57462510198719
10.083836461487	0.57461100463683
10.060149597315	0.57459708081665
10.036573752929	0.57458333366155
10.013108149633	0.57456976619308
9.9897520159947	0.57455638132050
9.9665045877660	0.57454318184189
9.9433651077944	0.57453017044528
9.9203328259431	0.57451734970974
9.8974069990096	0.57450472210655
9.8745868906456	0.57449229000024
9.8518717712783	0.57448005564981
9.8292609180328	0.57446802120980
9.8067536146549	0.57445618873145
9.7843491514360	0.57444456016382
9.7620468251384	0.57443313735499
9.7398459389214	0.57442192205313
9.7177458022690	0.57441091590770
9.6957457309185	0.57440012047058
9.6738450467893	0.57438953719724
9.6520430779137	0.57437916744789
9.6303391583681	0.57436901248863
9.6087326282051	0.57435907349262
9.5872228333866	0.57434935154125
9.5658091257179	0.57433984762528
9.5444908627826	0.57433056264603
9.5232674078780	0.57432149741655
9.5021381299525	0.57431265266274
9.4811024035421	0.57430402902460
9.4601596087094	0.57429562705730
9.4393091309824	0.57428744723245
9.4185503612944	0.57427948993918
9.3978826959248	0.57427175548537
9.3773055364404	0.57426424409880
9.3568182896380	0.57425695592831
9.3364203674868	0.57424989104499
9.3161111870727	0.57424304944332
9.2958901705426	0.57423643104236
9.2757567450495	0.57423003568691
9.2557103426984	0.57422386314866
9.2357504004929	0.57421791312739
9.2158763602828	0.57421218525208
9.1960876687117	0.57420667908213
9.1763837771656	0.57420139410847
9.1567641417227	0.57419632975474
9.1372282231027	0.57419148537845
9.1177754866180	0.57418686027211
9.0984054021244	0.57418245366440
9.0791174439733	0.57417826472132
9.0599110909640	0.57417429254731
9.0407858262967	0.57417053618643
9.0217411375263	0.57416699462346
9.0027765165165	0.57416366678508
8.9838914593947	0.57416055154096
8.9650854665072	0.57415764770492
8.9463580423754	0.57415495403604
8.9277086956522	0.57415246923978
8.9091369390788	0.57415019196914
8.8906422894425	0.57414812082571
8.8722242675348	0.57414625436084
8.8538823981099	0.57414459107670
8.8356162098438	0.57414312942742
8.8174252352941	0.57414186782018
8.7993090108600	0.57414080461628
8.7812670767428	0.57413993813227
8.7632989769073	0.57413926664100
8.7454042590432	0.57413878837271
8.7275824745269	0.57413850151612
8.7098331783847	0.57413840421950
8.6921559292549	0.57413849459169
8.6745502893519	0.57413877070322
8.6570158244297	0.57413923058734
8.6395521037464	0.57413987224107
8.6221587000288	0.57414069362622
8.6048351894374	0.57414169267047
8.5875811515325	0.57414286726837
8.5703961692396	0.57414421528240
8.5532798288160	0.57414573454394
8.5362317198178	0.57414742285433
8.5192514350668	0.57414927798586
8.5023385706183	0.57415129768276
8.4854927257288	0.57415347966222
8.4687135028249	0.57415582161536
8.4520005074711	0.57415832120823
8.4353533483399	0.57416097608277
8.4187716371806	0.57416378385778
8.4022549887892	0.57416674212988
8.3858030209790	0.57416984847450
8.3694153545505	0.57417310044678
8.3530916132627	0.57417649558254
8.3368314238042	0.57418003139920
8.3206344157646	0.57418370539673
8.3045002216066	0.57418751505853
8.2884284766381	0.57419145785240
8.2724188189845	0.57419553123139
8.2564708895621	0.57419973263473
8.2405843320506	0.57420405948871
8.2247587928669	0.57420850920755
8.2089939211391	0.57421307919432
8.1932893686800	0.57421776684176
8.1776447899618	0.57422256953313
8.1620598420909	0.57422748464314
8.1465341847826	0.57423250953869
8.1310674803363	0.57423764157979
8.1156593936113	0.57424287812034
8.1003095920022	0.57424821650896
8.0850177454153	0.57425365408982
8.0697835262450	0.57425918820340
8.0546066093498	0.57426481618735
8.0394866720300	0.57427053537719
8.0244233940043	0.57427634310718
8.0094164573871	0.57428223671102
