#Parameters = {thARC=0; nARC=2.25; thsub=1; p=1; nSub=1.25}
#"Wavelength / um"	"T (85) [Real Part]"
#--------------------------------------
14.008993364486	0.98774818195563
13.963318956684	0.98775190625712
13.917941411328	0.98775554523288
13.872857843591	0.98775909977145
13.828065405904	0.98776257075660
13.783561287356	0.98776595906729
13.739342713107	0.98776926557771
13.695406943810	0.98777249115727
13.651751275046	0.98777563667060
13.608373036768	0.98777870297758
13.565269592760	0.98778169093330
13.522438340099	0.98778460138812
13.479876708633	0.98778743518764
13.437582160466	0.98779019317272
13.395552189455	0.98779287617948
13.353784320713	0.98779548503930
13.312276110124	0.98779802057886
13.271025143869	0.98780048362009
13.230029037952	0.98780287498023
13.189285437747	0.98780519547180
13.148792017544	0.98780744590263
13.108546480105	0.98780962707584
13.068546556234	0.98781173978989
13.028790004346	0.98781378483853
12.989274610052	0.98781576301088
12.949998185745	0.98781767509135
12.910958570198	0.98781952185971
12.872153628167	0.98782130409109
12.833581250000	0.98782302255596
12.795239351259	0.98782467802016
12.757125872340	0.98782627124491
12.719238778108	0.98782780298678
12.681576057530	0.98782927399776
12.644135723323	0.98783068502522
12.606915811606	0.98783203681193
12.569914381551	0.98783333009606
12.533129515050	0.98783456561123
12.496559316382	0.98783574408645
12.460201911887	0.98783686624618
12.424055449648	0.98783793281032
12.388118099174	0.98783894449422
12.352388051092	0.98783990200870
12.316863516845	0.98784080606002
12.281542728390	0.98784165734995
12.246423937908	0.98784245657572
12.211505417515	0.98784320443005
12.176785458976	0.98784390160118
12.142262373431	0.98784454877286
12.107934491115	0.98784514662434
12.073800161095	0.98784569583041
12.039857751004	0.98784619706140
12.006105646776	0.98784665098318
11.972542252396	0.98784705825719
11.939165989646	0.98784741954042
11.905975297855	0.98784773548543
11.872968633663	0.98784800674039
11.840144470774	0.98784823394904
11.807501299724	0.98784841775073
11.775037627651	0.98784855878042
11.742751978065	0.98784865766869
11.710642890625	0.98784871504177
11.678708920919	0.98784873152151
11.646948640249	0.98784870772542
11.615360635413	0.98784864426668
11.583943508501	0.98784854175413
11.552695876686	0.98784840079230
11.521616372022	0.98784822198140
11.490703641242	0.98784800591736
11.459956345566	0.98784775319181
11.429373160503	0.98784746439210
11.398952775665	0.98784714010134
11.368693894577	0.98784678089834
11.338595234493	0.98784638735771
11.308655526217	0.98784596004979
11.278873513920	0.98784549954072
11.249247954972	0.98784500639242
11.219777619760	0.98784448116259
11.190461291527	0.98784392440477
11.161297766195	0.98784333666829
11.132285852209	0.98784271849833
11.103424370370	0.98784207043590
11.074712153676	0.98784139301786
11.046148047163	0.98784068677696
11.017730907755	0.98783995224178
10.989459604106	0.98783918993684
10.961333016453	0.98783840038250
10.933350036470	0.98783758409508
10.905509567115	0.98783674158679
10.877810522496	0.98783587336578
10.850251827723	0.98783497993613
10.822832418773	0.98783406179791
10.795551242348	0.98783311944713
10.768407255747	0.98783215337578
10.741399426729	0.98783116407184
10.714526733381	0.98783015201930
10.687788163993	0.98782911769816
10.661182716927	0.98782806158444
10.634709400497	0.98782698415021
10.608367232838	0.98782588586358
10.582155241793	0.98782476718872
10.556072464789	0.98782362858589
10.530117948718	0.98782247051142
10.504290749825	0.98782129341774
10.478589933590	0.98782009775340
10.453014574616	0.98781888396307
10.427563756522	0.98781765248754
10.402236571825	0.98781640376376
10.377032121841	0.98781513822486
10.351949516575	0.98781385630010
10.326987874612	0.98781255841497
10.302146323024	0.98781124499112
10.277423997257	0.98780991644643
10.252820041040	0.98780857319501
10.228333606278	0.98780721564718
10.203963852961	0.98780584420954
10.179709949066	0.98780445928493
10.155571070461	0.98780306127246
10.131546400811	0.98780165056755
10.107635131490	0.98780022756191
10.083836461487	0.98779879264355
10.060149597315	0.98779734619682
10.036573752929	0.98779588860240
10.013108149633	0.98779442023734
9.9897520159947	0.98779294147504
9.9665045877660	0.98779145268528
9.9433651077944	0.98778995423422
9.9203328259431	0.98778844648446
9.8974069990096	0.98778692979498
9.8745868906456	0.98778540452122
9.8518717712783	0.98778387101504
9.8292609180328	0.98778232962477
9.8067536146549	0.98778078069523
9.7843491514360	0.98777922456768
9.7620468251384	0.98777766157993
9.7398459389214	0.98777609206626
9.7177458022690	0.98777451635751
9.6957457309185	0.98777293478102
9.6738450467893	0.98777134766072
9.6520430779137	0.98776975531708
9.6303391583681	0.98776815806717
9.6087326282051	0.98776655622464
9.5872228333866	0.98776495009976
9.5658091257179	0.98776333999940
9.5444908627826	0.98776172622708
9.5232674078780	0.98776010908297
9.5021381299525	0.98775848886389
9.4811024035421	0.98775686586336
9.4601596087094	0.98775524037157
9.4393091309824	0.98775361267542
9.4185503612944	0.98775198305852
9.3978826959248	0.98775035180123
9.3773055364404	0.98774871918063
9.3568182896380	0.98774708547060
9.3364203674868	0.98774545094176
9.3161111870727	0.98774381586152
9.2958901705426	0.98774218049411
9.2757567450495	0.98774054510056
9.2557103426984	0.98773890993875
9.2357504004929	0.98773727526339
9.2158763602828	0.98773564132604
9.1960876687117	0.98773400837516
9.1763837771656	0.98773237665607
9.1567641417227	0.98773074641101
9.1372282231027	0.98772911787913
9.1177754866180	0.98772749129650
9.0984054021244	0.98772586689617
9.0791174439733	0.98772424490809
9.0599110909640	0.98772262555925
9.0407858262967	0.98772100907356
9.0217411375263	0.98771939567200
9.0027765165165	0.98771778557250
8.9838914593947	0.98771617899008
8.9650854665072	0.98771457613676
8.9463580423754	0.98771297722164
8.9277086956522	0.98771138245090
8.9091369390788	0.98770979202779
8.8906422894425	0.98770820615269
8.8722242675348	0.98770662502306
8.8538823981099	0.98770504883352
8.8356162098438	0.98770347777583
8.8174252352941	0.98770191203892
8.7993090108600	0.98770035180887
8.7812670767428	0.98769879726898
8.7632989769073	0.98769724859973
8.7454042590432	0.98769570597883
8.7275824745269	0.98769416958124
8.7098331783847	0.98769263957914
8.6921559292549	0.98769111614199
8.6745502893519	0.98768959943653
8.6570158244297	0.98768808962678
8.6395521037464	0.98768658687407
8.6221587000288	0.98768509133707
8.6048351894374	0.98768360317176
8.5875811515325	0.98768212253149
8.5703961692396	0.98768064956697
8.5532798288160	0.98767918442630
8.5362317198178	0.98767772725495
8.5192514350668	0.98767627819582
8.5023385706183	0.98767483738924
8.4854927257288	0.98767340497296
8.4687135028249	0.98767198108220
8.4520005074711	0.98767056584965
8.4353533483399	0.98766915940547
8.4187716371806	0.98766776187732
8.4022549887892	0.98766637339039
8.3858030209790	0.98766499406739
8.3694153545505	0.98766362402855
8.3530916132627	0.98766226339170
8.3368314238042	0.98766091227221
8.3206344157646	0.98765957078305
8.3045002216066	0.98765823903478
8.2884284766381	0.98765691713559
8.2724188189845	0.98765560519130
8.2564708895621	0.98765430330536
8.2405843320506	0.98765301157891
8.2247587928669	0.98765173011074
8.2089939211391	0.98765045899734
8.1932893686800	0.98764919833290
8.1776447899618	0.98764794820934
8.1620598420909	0.98764670871631
8.1465341847826	0.98764547994120
8.1310674803363	0.98764426196918
8.1156593936113	0.98764305488319
8.1003095920022	0.98764185876396
8.0850177454153	0.98764067369003
8.0697835262450	0.98763949973778
8.0546066093498	0.98763833698141
8.0394866720300	0.98763718549296
8.0244233940043	0.98763604534238
8.0094164573871	0.98763491659746
